StartTime: 2018-11-15 20:11:00.594
Time(s)	AngleX(deg)	AngleY(deg)	AngleZ(deg)	T(Â°) 
1858.716	9.2999	5.0867	175.6055	0.0000 
1858.737	9.2889	5.1141	175.6055	0.0000 
1858.757	9.2725	5.1306	175.6165	0.0000 
1858.780	9.2615	5.1526	175.6274	0.0000 
1858.856	9.2615	5.1910	175.6494	0.0000 
1858.867	9.2670	5.2185	175.6604	0.0000 
1858.867	9.2560	5.2515	175.6659	0.0000 
1858.867	9.2560	5.2789	175.6824	0.0000 
1858.876	9.2450	5.3064	175.6879	0.0000 
1858.896	9.2340	5.3284	175.6934	0.0000 
1858.915	9.2230	5.3558	175.7153	0.0000 
1858.935	9.2010	5.3613	175.7318	0.0000 
1858.955	9.1681	5.3668	175.7373	0.0000 
1859.030	9.1351	5.3723	175.7483	0.0000 
1859.042	9.0967	5.3668	175.7483	0.0000 
1859.042	9.0472	5.3613	175.7483	0.0000 
1859.043	9.0033	5.3503	175.7538	0.0000 
1859.063	8.9484	5.3229	175.7538	0.0000 
1859.084	8.8770	5.3119	175.7538	0.0000 
1859.095	8.8165	5.3009	175.7648	0.0000 
1859.114	8.7561	5.2789	175.7703	0.0000 
1859.134	8.6792	5.2570	175.7373	0.0000 
1859.154	8.5968	5.2515	175.6934	0.0000 
1859.176	8.5144	5.2460	175.6384	0.0000 
1859.264	8.4265	5.2350	175.5725	0.0000 
1859.271	8.3331	5.2240	175.5066	0.0000 
1859.271	8.2288	5.2295	175.4352	0.0000 
1859.271	8.1134	5.2460	175.3418	0.0000 
1859.277	8.0035	5.2625	175.2209	0.0000 
1859.296	7.8937	5.2625	175.0726	0.0000 
1859.318	7.7948	5.2570	174.8639	0.0000 
1859.340	7.7124	5.2625	174.6222	0.0000 
1859.362	7.6245	5.2844	174.3695	0.0000 
1859.438	7.5311	5.2954	174.1443	0.0000 
1859.450	7.4377	5.2844	173.9575	0.0000 
1859.450	7.3718	5.2515	173.8147	0.0000 
1859.450	7.2949	5.2240	173.6938	0.0000 
1859.456	7.1741	5.2350	173.5785	0.0000 
1859.472	7.0258	5.2570	173.4521	0.0000 
1859.497	6.8774	5.2734	173.3148	0.0000 
1859.515	6.7566	5.2625	173.1720	0.0000 
1859.537	6.6467	5.2240	173.0127	0.0000 
1859.558	6.5259	5.1636	172.8644	0.0000 
1859.580	6.3940	5.0867	172.7325	0.0000 
1859.602	6.2622	5.0043	172.6337	0.0000 
1859.675	6.1798	4.9219	172.5952	0.0000 
1859.685	6.1249	4.8615	172.5677	0.0000 
1859.686	6.1084	4.8285	172.5897	0.0000 
1859.686	6.1249	4.7955	172.6611	0.0000 
1859.692	6.1523	4.7461	172.7271	0.0000 
1859.712	6.1798	4.6967	172.7930	0.0000 
1859.731	6.2128	4.6692	172.8644	0.0000 
1859.751	6.2567	4.6582	172.9413	0.0000 
1859.773	6.3116	4.6527	173.0457	0.0000 
1859.849	6.3885	4.6362	173.2104	0.0000 
1859.861	6.4600	4.6198	173.4247	0.0000 
1859.861	6.5259	4.6033	173.6334	0.0000 
1859.861	6.5863	4.5758	173.8147	0.0000 
1859.871	6.6632	4.5319	173.9850	0.0000 
1859.891	6.7566	4.4495	174.1827	0.0000 
1859.910	6.8939	4.3121	174.5013	0.0000 
1859.930	7.0532	4.1473	174.9023	0.0000 
1859.950	7.2894	3.9990	175.2814	0.0000 
1859.970	7.5037	3.8727	175.6494	0.0000 
1859.990	7.5861	3.8177	176.0449	0.0000 
1860.083	7.5531	3.8013	176.4459	0.0000 
1860.089	7.5366	3.7793	176.8799	0.0000 
1860.089	7.5586	3.7518	177.2754	0.0000 
1860.089	7.5916	3.7573	177.5555	0.0000 
1860.095	7.6190	3.7683	177.7643	0.0000 
1860.114	7.6245	3.7628	177.9840	0.0000 
1860.136	7.6520	3.7463	178.2147	0.0000 
1860.156	7.7289	3.7244	178.4619	0.0000 
1860.180	7.8003	3.7079	178.7036	0.0000 
1860.256	7.8223	3.7244	178.9233	0.0000 
1860.267	7.8168	3.7903	179.1376	0.0000 
1860.268	7.7728	3.8837	179.3903	0.0000 
1860.268	7.7234	3.9825	179.6594	0.0000 
1860.274	7.6904	4.0924	179.9286	0.0000 
1860.288	7.6465	4.2133	-179.8022	0.0000 
1860.310	7.5696	4.3341	-179.5715	0.0000 
1860.332	7.4487	4.4659	-179.3243	0.0000 
1860.354	7.3389	4.5813	-179.0826	0.0000 
1860.379	7.2510	4.6637	-178.8080	0.0000 
1860.387	7.1796	4.7131	-178.5498	0.0000 
1860.407	7.1411	4.7571	-178.3246	0.0000 
1860.488	7.1191	4.8065	-178.1268	0.0000 
1860.494	7.1082	4.8779	-177.9840	0.0000 
1860.494	7.1466	4.9384	-177.8577	0.0000 
1860.495	7.2125	4.9548	-177.7643	0.0000 
1860.506	7.2784	4.9603	-177.7094	0.0000 
1860.527	7.3334	4.9603	-177.6654	0.0000 
1860.546	7.4103	4.9493	-177.6709	0.0000 
1860.566	7.5092	4.9493	-177.7313	0.0000 
1860.586	7.5916	4.9438	-177.8741	0.0000 
1860.660	7.6575	4.9219	-178.0280	0.0000 
1860.672	7.7509	4.9164	-178.1982	0.0000 
1860.672	7.8607	4.9548	-178.3630	0.0000 
1860.673	7.9761	5.0208	-178.6157	0.0000 
1860.692	8.0365	5.0867	-178.9673	0.0000 
1860.714	8.0145	5.1910	-179.3683	0.0000 
1860.734	7.9980	5.2734	-179.7528	0.0000 
1860.746	8.0200	5.2734	179.8901	0.0000 
1860.765	8.0365	5.2075	179.5715	0.0000 
1860.785	8.0035	5.1361	179.3243	0.0000 
1860.804	7.9816	5.0812	179.2035	0.0000 
1860.891	8.0145	5.0208	179.1705	0.0000 
1860.897	7.9980	4.9603	179.0387	0.0000 
1860.897	7.9156	4.9109	178.7970	0.0000 
1860.897	7.7893	4.8779	178.5608	0.0000 
1860.905	7.6520	4.8230	178.3521	0.0000 
1860.925	7.5256	4.7406	178.1873	0.0000 
1860.946	7.4323	4.6417	178.0225	0.0000 
1860.966	7.3279	4.5428	177.8412	0.0000 
1860.988	7.2125	4.4604	177.6654	0.0000 
1861.067	7.0697	4.3890	177.5116	0.0000 
1861.078	6.8719	4.3616	177.3743	0.0000 
1861.078	6.7017	4.3506	177.2864	0.0000 
1861.079	6.5698	4.3231	177.2205	0.0000 
1861.085	6.4655	4.2957	177.1820	0.0000 
1861.104	6.3995	4.2737	177.1985	0.0000 
1861.123	6.3721	4.2517	177.2205	0.0000 
1861.144	6.3666	4.2297	177.2424	0.0000 
1861.166	6.3995	4.2188	177.2699	0.0000 
1861.188	6.4655	4.2242	177.2754	0.0000 
1861.209	6.5204	4.2517	177.3193	0.0000 
1861.300	6.5808	4.2792	177.4402	0.0000 
1861.306	6.6687	4.2957	177.6489	0.0000 
1861.306	6.7731	4.2957	177.8796	0.0000 
1861.306	6.8665	4.2792	178.1268	0.0000 
1861.306	6.9818	4.2572	178.3795	0.0000 
1861.331	7.0697	4.3121	178.5828	0.0000 
1861.344	7.1082	4.4000	178.7915	0.0000 
1861.362	7.1741	4.4440	179.1925	0.0000 
1861.382	7.2180	4.3726	179.7089	0.0000 
1861.402	7.2015	4.2627	-179.8352	0.0000 
1861.480	7.1796	4.2188	-179.4562	0.0000 
1861.492	7.1521	4.2517	-179.1486	0.0000 
1861.492	7.0862	4.3011	-178.9014	0.0000 
1861.492	6.9873	4.3451	-178.6871	0.0000 
1861.502	6.9049	4.3616	-178.4564	0.0000 
1861.521	6.8719	4.3451	-178.2257	0.0000 
1861.541	6.8445	4.3066	-178.0499	0.0000 
1861.561	6.8115	4.2792	-177.8796	0.0000 
1861.580	6.7511	4.2902	-177.7094	0.0000 
1861.601	6.6632	4.3286	-177.5665	0.0000 
1861.624	6.5643	4.3561	-177.4457	0.0000 
1861.714	6.4874	4.3616	-177.3303	0.0000 
1861.720	6.4380	4.3616	-177.2095	0.0000 
1861.720	6.4270	4.3781	-177.0667	0.0000 
1861.720	6.4215	4.4165	-176.9183	0.0000 
1861.720	6.3995	4.4659	-176.8085	0.0000 
1861.747	6.3831	4.5209	-176.7480	0.0000 
1861.769	6.3666	4.5648	-176.7206	0.0000 
1861.779	6.3556	4.5978	-176.7316	0.0000 
1861.800	6.4050	4.6143	-176.7535	0.0000 
1861.819	6.5094	4.6198	-176.7810	0.0000 
1861.890	6.6522	4.6088	-176.8414	0.0000 
1861.902	6.7950	4.5868	-176.9403	0.0000 
1861.902	6.9324	4.5044	-177.1106	0.0000 
1861.908	7.0917	4.4440	-177.3083	0.0000 
1861.923	7.1796	4.4000	-177.5281	0.0000 
1861.947	7.2675	4.3506	-177.6929	0.0000 
1861.967	7.3718	4.3176	-177.8302	0.0000 
1861.979	7.4872	4.2737	-178.0609	0.0000 
1861.998	7.5366	4.2297	-178.5059	0.0000 
1862.018	7.4377	4.2188	-179.1101	0.0000 
1862.038	7.2729	4.2242	-179.6814	0.0000 
1862.128	7.1851	4.1638	179.9011	0.0000 
1862.134	7.1686	4.0485	179.5990	0.0000 
1862.134	7.1796	3.9111	179.4232	0.0000 
1862.134	7.2070	3.7958	179.3079	0.0000 
1862.140	7.1960	3.7463	179.2035	0.0000 
1862.161	7.1521	3.7518	179.0936	0.0000 
1862.183	7.0807	3.7903	178.9838	0.0000 
1862.207	6.9983	3.8177	178.8684	0.0000 
1862.217	6.8445	3.7958	178.7256	0.0000 
1862.305	6.6632	3.7518	178.6047	0.0000 
1862.317	6.5149	3.6914	178.4949	0.0000 
1862.317	6.4105	3.5925	178.3850	0.0000 
1862.317	6.3116	3.4937	178.2422	0.0000 
1862.323	6.1908	3.4387	178.1213	0.0000 
1862.338	6.0754	3.4167	178.0499	0.0000 
1862.358	5.9875	3.4058	178.0115	0.0000 
1862.381	5.9106	3.4058	177.9785	0.0000 
1862.401	5.8337	3.4277	177.9675	0.0000 
1862.425	5.7953	3.4772	177.9840	0.0000 
1862.446	5.7843	3.5211	178.0005	0.0000 
1862.456	5.7843	3.5651	177.9840	0.0000 
1862.539	5.7788	3.6145	177.9401	0.0000 
1862.551	5.7458	3.6694	177.9126	0.0000 
1862.551	5.7129	3.7299	177.9126	0.0000 
1862.551	5.6854	3.7738	177.9950	0.0000 
1862.566	5.6635	3.8123	178.1653	0.0000 
1862.587	5.6909	3.8507	178.4125	0.0000 
1862.601	5.7513	3.8947	178.6981	0.0000 
1862.622	5.8173	3.9276	179.0002	0.0000 
1862.646	5.8777	3.9496	179.3243	0.0000 
1862.715	5.9601	3.9935	179.6759	0.0000 
1862.726	6.0425	4.0759	-179.9561	0.0000 
1862.726	6.1798	4.0869	-179.5276	0.0000 
1862.726	6.3391	4.0320	-178.9893	0.0000 
1862.734	6.4270	3.9716	-178.5004	0.0000 
1862.754	6.5039	3.9606	-178.0334	0.0000 
1862.774	6.5533	3.9935	-177.5610	0.0000 
1862.794	6.5533	4.0540	-177.1326	0.0000 
1862.814	6.5314	4.1309	-176.7261	0.0000 
1862.890	6.5094	4.1748	-176.3525	0.0000 
1862.903	6.4984	4.2023	-176.0449	0.0000 
1862.903	6.4874	4.2352	-175.8087	0.0000 
1862.903	6.4380	4.2847	-175.5505	0.0000 
1862.924	6.3501	4.3396	-175.2429	0.0000 
1862.934	6.2622	4.4055	-174.9463	0.0000 
1862.953	6.2238	4.4824	-174.6387	0.0000 
1862.972	6.2128	4.5538	-174.3311	0.0000 
1862.993	6.1688	4.6472	-174.0839	0.0000 
1863.014	6.1139	4.7845	-173.8586	0.0000 
1863.033	6.0809	4.9384	-173.6499	0.0000 
1863.125	6.0370	5.0702	-173.4686	0.0000 
1863.131	5.9491	5.2020	-173.3643	0.0000 
1863.131	5.8612	5.3284	-173.2928	0.0000 
1863.131	5.7898	5.4163	-173.2050	0.0000 
1863.137	5.7349	5.4822	-173.1281	0.0000 
1863.159	5.7184	5.5481	-173.0621	0.0000 
1863.182	5.7349	5.6195	-173.0017	0.0000 
1863.203	5.7843	5.6909	-172.9413	0.0000 
1863.212	5.8557	5.7623	-172.9083	0.0000 
1863.231	5.9326	5.8392	-172.8973	0.0000 
1863.301	5.9930	5.8997	-172.9028	0.0000 
1863.313	6.0809	5.9326	-172.9413	0.0000 
1863.314	6.2073	5.9436	-172.9852	0.0000 
1863.320	6.3007	5.9271	-173.0731	0.0000 
1863.335	6.3940	5.8997	-173.1830	0.0000 
1863.360	6.4984	5.8722	-173.2599	0.0000 
1863.381	6.6248	5.8667	-173.3478	0.0000 
1863.391	6.7072	5.8777	-173.5510	0.0000 
1863.410	6.7072	5.9161	-173.8806	0.0000 
1863.430	6.6248	5.9821	-174.2487	0.0000 
1863.449	6.5479	6.0370	-174.5618	0.0000 
1863.538	6.5314	6.0370	-174.8364	0.0000 
1863.545	6.5259	6.0040	-175.0616	0.0000 
1863.545	6.4764	5.9930	-175.2100	0.0000 
1863.545	6.4050	6.0095	-175.2869	0.0000 
1863.551	6.3446	6.0754	-175.3033	0.0000 
1863.571	6.2732	6.1414	-175.3253	0.0000 
1863.593	6.1688	6.1908	-175.3802	0.0000 
1863.615	6.0425	6.2183	-175.4352	0.0000 
1863.638	5.9106	6.2238	-175.4407	0.0000 
1863.711	5.8008	6.2073	-175.4352	0.0000 
1863.725	5.7349	6.1578	-175.4297	0.0000 
1863.725	5.6744	6.0974	-175.4297	0.0000 
1863.725	5.5975	6.0754	-175.4242	0.0000 
1863.732	5.5151	6.0809	-175.4022	0.0000 
1863.749	5.4218	6.1084	-175.3693	0.0000 
1863.769	5.3558	6.1414	-175.2869	0.0000 
1863.789	5.3174	6.1633	-175.1715	0.0000 
1863.812	5.3064	6.1578	-175.0397	0.0000 
1863.833	5.3448	6.1304	-174.8914	0.0000 
1863.855	5.4163	6.0974	-174.7101	0.0000 
1863.876	5.5426	6.0535	-174.4958	0.0000 
1863.950	5.7349	6.0260	-174.2542	0.0000 
1863.962	5.9436	6.0150	-174.0234	0.0000 
1863.963	6.1688	6.0095	-173.7543	0.0000 
1863.963	6.3831	6.0425	-173.4137	0.0000 
1863.969	6.5039	6.0919	-173.0402	0.0000 
1863.987	6.6248	6.1688	-172.6282	0.0000 
1864.013	6.7456	6.2897	-172.1997	0.0000 
1864.029	6.8225	6.4325	-171.8207	0.0000 
1864.050	6.8225	6.5259	-171.3647	0.0000 
1864.146	6.7786	6.5369	-170.9033	0.0000 
1864.152	6.7676	6.5369	-170.4913	0.0000 
1864.152	6.7676	6.5698	-170.1617	0.0000 
1864.152	6.7401	6.6248	-169.9310	0.0000 
1864.152	6.6907	6.6577	-169.7552	0.0000 
1864.166	6.6302	6.6742	-169.5740	0.0000 
1864.186	6.5973	6.6797	-169.3762	0.0000 
1864.206	6.5918	6.6577	-169.1730	0.0000 
1864.226	6.5369	6.6138	-169.0082	0.0000 
1864.248	6.4325	6.5808	-168.8983	0.0000 
1864.321	6.3116	6.5753	-168.8434	0.0000 
1864.332	6.1853	6.5753	-168.8104	0.0000 
1864.332	6.0645	6.5753	-168.7885	0.0000 
1864.333	5.9601	6.5973	-168.7830	0.0000 
1864.353	5.8887	6.6302	-168.7500	0.0000 
1864.374	5.8228	6.6632	-168.7006	0.0000 
1864.384	5.7513	6.6687	-168.6621	0.0000 
1864.404	5.6799	6.6632	-168.6346	0.0000 
1864.425	5.6305	6.6632	-168.6182	0.0000 
1864.445	5.5975	6.6467	-168.6292	0.0000 
1864.464	5.5865	6.6248	-168.6621	0.0000 
1864.554	5.6140	6.6083	-168.7170	0.0000 
1864.560	5.6525	6.5973	-168.7994	0.0000 
1864.560	5.7019	6.6138	-168.8818	0.0000 
1864.560	5.7458	6.6357	-168.9752	0.0000 
1864.566	5.8282	6.6357	-169.0741	0.0000 
1864.586	5.9326	6.5973	-169.2114	0.0000 
1864.609	6.0809	6.5149	-169.4092	0.0000 
1864.631	6.2457	6.4435	-169.6289	0.0000 
1864.652	6.3776	6.3446	-169.8486	0.0000 
1864.735	6.4984	6.2292	-170.0464	0.0000 
1864.747	6.5918	6.1743	-170.2771	0.0000 
1864.747	6.7017	6.1908	-170.5023	0.0000 
1864.748	6.8060	6.2732	-170.7715	0.0000 
1864.754	6.8774	6.3885	-171.1450	0.0000 
1864.768	6.8774	6.5039	-171.6229	0.0000 
1864.790	6.8225	6.5588	-172.1228	0.0000 
1864.814	6.7511	6.5424	-172.5787	0.0000 
1864.823	6.7181	6.4709	-172.9303	0.0000 
1864.842	6.7566	6.3501	-173.1665	0.0000 
1864.862	6.8115	6.2457	-173.3313	0.0000 
1864.882	6.8555	6.2183	-173.4906	0.0000 
1864.967	6.8445	6.2238	-173.6884	0.0000 
1864.973	6.7401	6.2402	-173.9191	0.0000 
1864.973	6.6028	6.2292	-174.1333	0.0000 
1864.973	6.4764	6.1853	-174.3201	0.0000 
1864.981	6.3721	6.1249	-174.4849	0.0000 
1865.001	6.2732	6.0645	-174.6332	0.0000 
1865.023	6.1523	5.9985	-174.7595	0.0000 
1865.046	6.0315	5.9381	-174.8749	0.0000 
1865.068	5.9052	5.8942	-174.9628	0.0000 
1865.144	5.7678	5.8777	-175.0287	0.0000 
1865.155	5.6360	5.8942	-175.0671	0.0000 
1865.155	5.5261	5.9106	-175.0781	0.0000 
1865.155	5.4382	5.9271	-175.0342	0.0000 
1865.161	5.3943	5.9381	-174.9573	0.0000 
1865.180	5.3998	5.9381	-174.8804	0.0000 
1865.200	5.4272	5.9491	-174.8199	0.0000 
1865.222	5.4767	5.9821	-174.7595	0.0000 
1865.248	5.5426	6.0425	-174.6881	0.0000 
1865.321	5.5920	6.1029	-174.5892	0.0000 
1865.333	5.6360	6.1633	-174.4354	0.0000 
1865.333	5.7074	6.2402	-174.2322	0.0000 
1865.333	5.7733	6.3226	-174.0509	0.0000 
1865.340	5.8228	6.4105	-173.8861	0.0000 
1865.360	5.8173	6.5149	-173.7817	0.0000 
1865.379	5.7843	6.6083	-173.7103	0.0000 
1865.399	5.7898	6.6248	-173.5291	0.0000 
1865.419	5.8447	6.5533	-173.1940	0.0000 
1865.440	5.8832	6.4600	-172.8479	0.0000 
1865.464	5.8887	6.4105	-172.5623	0.0000 
1865.551	5.8447	6.4160	-172.3590	0.0000 
1865.558	5.8008	6.4819	-172.1887	0.0000 
1865.558	5.7843	6.5479	-172.0294	0.0000 
1865.558	5.7843	6.5918	-171.8976	0.0000 
1865.564	5.7843	6.5973	-171.7987	0.0000 
1865.583	5.7788	6.5918	-171.7218	0.0000 
1865.605	5.7513	6.5808	-171.6833	0.0000 
1865.628	5.6799	6.5643	-171.6614	0.0000 
1865.638	5.5975	6.5533	-171.6559	0.0000 
1865.657	5.5151	6.5533	-171.6669	0.0000 
1865.678	5.4218	6.5643	-171.6833	0.0000 
1865.697	5.3613	6.5808	-171.6998	0.0000 
1865.787	5.3394	6.6138	-171.7218	0.0000 
1865.793	5.3339	6.6522	-171.7822	0.0000 
1865.793	5.2954	6.7017	-171.8866	0.0000 
1865.793	5.2240	6.7676	-172.0020	0.0000 
1865.799	5.1251	6.8170	-172.1228	0.0000 
1865.820	5.0208	6.8500	-172.2437	0.0000 
1865.840	4.9493	6.8665	-172.3370	0.0000 
1865.864	4.9493	6.8445	-172.4194	0.0000 
1865.887	5.0043	6.7950	-172.5073	0.0000 
1865.962	5.0537	6.7621	-172.6337	0.0000 
1865.973	5.1141	6.7621	-172.7985	0.0000 
1865.973	5.1855	6.7841	-172.9688	0.0000 
1865.974	5.2515	6.7841	-173.1500	0.0000 
1865.980	5.2844	6.7731	-173.3752	0.0000 
1865.996	5.3339	6.7236	-173.6279	0.0000 
1866.017	5.4492	6.6357	-173.8696	0.0000 
1866.040	5.5646	6.5094	-174.0894	0.0000 
1866.062	5.6854	6.3721	-174.2651	0.0000 
1866.134	5.8337	6.2787	-174.3695	0.0000 
1866.146	5.9985	6.2787	-174.4464	0.0000 
1866.146	6.1304	6.3556	-174.5947	0.0000 
1866.146	6.1853	6.4545	-174.9023	0.0000 
1866.154	6.1194	6.5533	-175.3912	0.0000 
1866.174	6.0040	6.6138	-175.8966	0.0000 
1866.194	5.9381	6.6193	-176.3086	0.0000 
1866.214	5.9436	6.5369	-176.6217	0.0000 
1866.234	5.9711	6.4160	-176.8799	0.0000 
1866.256	5.9930	6.3446	-177.0941	0.0000 
1866.279	5.9875	6.3721	-177.2974	0.0000 
1866.369	5.9271	6.4380	-177.5171	0.0000 
1866.375	5.8282	6.5094	-177.7423	0.0000 
1866.375	5.7019	6.5424	-177.9785	0.0000 
1866.375	5.5756	6.5204	-178.2367	0.0000 
1866.375	5.4602	6.4655	-178.5059	0.0000 
1866.402	5.3668	6.3666	-178.7640	0.0000 
1866.413	5.2679	6.2347	-179.0112	0.0000 
1866.433	5.1746	6.1249	-179.2310	0.0000 
1866.452	5.0922	6.0315	-179.4067	0.0000 
1866.472	4.9933	5.9656	-179.5496	0.0000 
1866.493	4.8779	5.9381	-179.6594	0.0000 
1866.514	4.7955	5.9271	-179.6924	0.0000 
1866.609	4.7516	5.9161	-179.6759	0.0000 
1866.615	4.7736	5.9052	-179.6265	0.0000 
1866.615	4.8340	5.8777	-179.5880	0.0000 
1866.615	4.8669	5.8557	-179.6045	0.0000 
1866.615	4.8724	5.8722	-179.6484	0.0000 
1866.643	4.8889	5.9106	-179.6539	0.0000 
1866.653	4.9219	5.9436	-179.5990	0.0000 
1866.673	5.0043	5.9656	-179.4946	0.0000 
1866.692	5.1141	6.0095	-179.3573	0.0000 
1866.712	5.1965	6.0699	-179.2365	0.0000 
1866.784	5.2789	6.1084	-179.1156	0.0000 
1866.797	5.3394	6.1523	-179.0167	0.0000 
1866.797	5.4218	6.1963	-178.8794	0.0000 
1866.803	5.4987	6.1798	-178.6542	0.0000 
1866.817	5.5042	6.0809	-178.3521	0.0000 
1866.839	5.5096	5.9601	-178.0225	0.0000 
1866.860	5.5316	5.8777	-177.6984	0.0000 
1866.871	5.5591	5.8557	-177.4402	0.0000 
1866.961	5.5591	5.8777	-177.2809	0.0000 
1866.972	5.5536	5.9106	-177.1710	0.0000 
1866.972	5.5481	5.9381	-177.0392	0.0000 
1866.972	5.5536	5.9436	-176.9238	0.0000 
1866.979	5.5591	5.9436	-176.8359	0.0000 
1866.993	5.5316	5.9436	-176.7920	0.0000 
1867.015	5.4712	5.9436	-176.7865	0.0000 
1867.038	5.3943	5.9656	-176.7975	0.0000 
1867.059	5.3339	6.0095	-176.8140	0.0000 
1867.070	5.2954	6.0699	-176.8195	0.0000 
1867.089	5.2954	6.1414	-176.8030	0.0000 
1867.111	5.3119	6.2292	-176.7920	0.0000 
1867.194	5.3284	6.3171	-176.7700	0.0000 
1867.200	5.3229	6.3995	-176.7645	0.0000 
1867.200	5.3064	6.4819	-176.7975	0.0000 
1867.200	5.2844	6.5424	-176.8689	0.0000 
1867.209	5.2625	6.5863	-176.9788	0.0000 
1867.229	5.2570	6.6193	-177.0941	0.0000 
1867.249	5.2954	6.6412	-177.1930	0.0000 
1867.271	5.3888	6.6357	-177.2754	0.0000 
1867.293	5.5371	6.6193	-177.3578	0.0000 
1867.369	5.6964	6.5863	-177.4622	0.0000 
1867.379	5.8447	6.5533	-177.5995	0.0000 
1867.379	5.9601	6.5149	-177.7863	0.0000 
1867.380	6.0645	6.4105	-178.0170	0.0000 
1867.388	6.1853	6.2842	-178.2697	0.0000 
1867.407	6.2897	6.1688	-178.5278	0.0000 
1867.428	6.3885	6.0754	-178.7421	0.0000 
1867.447	6.5149	6.0370	-178.9343	0.0000 
1867.470	6.6632	6.0480	-179.1376	0.0000 
1867.494	6.7181	6.0590	-179.5056	0.0000 
1867.513	6.6412	6.0480	179.9835	0.0000 
1867.592	6.5314	5.9875	179.4177	0.0000 
1867.598	6.4545	5.8777	178.9124	0.0000 
1867.598	6.4380	5.6909	178.5443	0.0000 
1867.598	6.4435	5.4987	178.3026	0.0000 
1867.606	6.4709	5.3833	178.1543	0.0000 
1867.626	6.4764	5.3394	177.9895	0.0000 
1867.648	6.4435	5.3558	177.7808	0.0000 
1867.668	6.3831	5.4108	177.5555	0.0000 
1867.704	6.2732	5.4382	177.3248	0.0000 
1867.717	6.1359	5.4327	177.0996	0.0000 
1867.726	6.0040	5.4163	176.9073	0.0000 
1867.746	5.8667	5.3613	176.7426	0.0000 
1867.828	5.7239	5.3229	176.5778	0.0000 
1867.834	5.6085	5.3009	176.4185	0.0000 
1867.834	5.5316	5.2899	176.2592	0.0000 
1867.834	5.4492	5.2789	176.1163	0.0000 
1867.845	5.3558	5.2734	175.9955	0.0000 
1867.864	5.2570	5.2844	175.9076	0.0000 
1867.884	5.2185	5.2954	175.8582	0.0000 
1867.905	5.2460	5.2789	175.8307	0.0000 
1867.928	5.3064	5.2460	175.7703	0.0000 
1868.004	5.3723	5.2405	175.6659	0.0000 
1868.016	5.4327	5.2625	175.5780	0.0000 
1868.016	5.4987	5.2954	175.5450	0.0000 
1868.016	5.5756	5.3229	175.5396	0.0000 
1868.024	5.6470	5.3448	175.5450	0.0000 
1868.045	5.7294	5.3943	175.5670	0.0000 
1868.064	5.8118	5.4767	175.6055	0.0000 
1868.084	5.8337	5.5865	175.6219	0.0000 
1868.104	5.8392	5.7074	175.6329	0.0000 
1868.178	5.8008	5.8118	175.6219	0.0000 
1868.188	5.7568	5.8612	175.6219	0.0000 
1868.189	5.7513	5.8612	175.6989	0.0000 
1868.189	5.7623	5.7788	175.8911	0.0000 
1868.213	5.7404	5.6525	176.1053	0.0000 
1868.232	5.7019	5.5811	176.3086	0.0000 
1868.245	5.6580	5.5646	176.5009	0.0000 
1868.263	5.6195	5.5865	176.6602	0.0000 
1868.283	5.6140	5.6030	176.7920	0.0000 
1868.303	5.5975	5.5865	176.8634	0.0000 
1868.322	5.6140	5.5536	176.8964	0.0000 
1868.414	5.6140	5.5042	176.8634	0.0000 
1868.420	5.5591	5.4492	176.8030	0.0000 
1868.420	5.4437	5.4218	176.7480	0.0000 
1868.420	5.3284	5.4108	176.7151	0.0000 
1868.427	5.2734	5.4163	176.7041	0.0000 
1868.447	5.2460	5.4218	176.6821	0.0000 
1868.469	5.2185	5.4547	176.6107	0.0000 
1868.490	5.1801	5.5261	176.5283	0.0000 
1868.512	5.1361	5.6085	176.4404	0.0000 
1868.587	5.0977	5.6964	176.3361	0.0000 
1868.599	5.0427	5.7788	176.1987	0.0000 
1868.600	4.9878	5.8667	176.0394	0.0000 
1868.600	4.9329	5.9436	175.8856	0.0000 
1868.606	4.9054	6.0095	175.7318	0.0000 
1868.621	4.9164	6.0535	175.5615	0.0000 
1868.643	4.9603	6.0919	175.3802	0.0000 
1868.665	5.0812	6.1029	175.1825	0.0000 
1868.689	5.1910	6.0974	174.9188	0.0000 
1868.708	5.3174	6.0754	174.6497	0.0000 
1868.720	5.4437	6.0040	174.3805	0.0000 
1868.740	5.6470	5.8667	174.0619	0.0000 
1868.825	5.8502	5.7349	173.6774	0.0000 
1868.831	6.0150	5.6140	173.2599	0.0000 
1868.831	6.1633	5.5151	172.8918	0.0000 
1868.831	6.3391	5.4163	172.5677	0.0000 
1868.839	6.4655	5.3448	172.1667	0.0000 
1868.859	6.4215	5.2844	171.5900	0.0000 
1868.880	6.2457	5.2844	170.9363	0.0000 
1868.900	6.1249	5.3064	170.3265	0.0000 
1868.926	6.1029	5.2844	169.8486	0.0000 
1869.002	6.1249	5.2185	169.4421	0.0000 
1869.013	6.1414	5.1471	169.1290	0.0000 
1869.014	6.1304	5.1196	168.8544	0.0000 
1869.014	6.0590	5.1306	168.5413	0.0000 
1869.020	5.9711	5.1910	168.2062	0.0000 
1869.038	5.8887	5.2570	167.8711	0.0000 
1869.058	5.7843	5.3064	167.5525	0.0000 
1869.079	5.6470	5.3394	167.2668	0.0000 
1869.102	5.5042	5.3448	167.0361	0.0000 
1869.123	5.3613	5.3284	166.8439	0.0000 
1869.145	5.2570	5.2954	166.6461	0.0000 
1869.167	5.1801	5.2625	166.4154	0.0000 
1869.243	5.0977	5.2350	166.1627	0.0000 
1869.254	5.0043	5.2405	165.9375	0.0000 
1869.254	4.9164	5.2460	165.7507	0.0000 
1869.255	4.8395	5.2570	165.6024	0.0000 
1869.261	4.7845	5.2679	165.4706	0.0000 
1869.277	4.7571	5.2844	165.3387	0.0000 
1869.299	4.7351	5.3174	165.1959	0.0000 
1869.320	4.7186	5.3668	165.0586	0.0000 
1869.342	4.7131	5.4327	164.9432	0.0000 
1869.421	4.7296	5.5042	164.8389	0.0000 
1869.432	4.7516	5.5756	164.7565	0.0000 
1869.432	4.7900	5.6415	164.7125	0.0000 
1869.432	4.8285	5.7074	164.6906	0.0000 
1869.439	4.8999	5.7513	164.6906	0.0000 
1869.456	5.0098	5.7898	164.6906	0.0000 
1869.476	5.1416	5.8392	164.6686	0.0000 
1869.498	5.2130	5.8722	164.6521	0.0000 
1869.519	5.2734	5.8997	164.6686	0.0000 
1869.597	5.3174	5.9436	164.6851	0.0000 
1869.607	5.4053	6.0040	164.7400	0.0000 
1869.608	5.4877	6.0315	164.8773	0.0000 
1869.608	5.5042	5.9930	165.0970	0.0000 
1869.615	5.4602	5.9491	165.3223	0.0000 
1869.635	5.4437	5.9052	165.5640	0.0000 
1869.655	5.4822	5.8777	165.7947	0.0000 
1869.675	5.5261	5.8832	165.9320	0.0000 
1869.695	5.5646	5.9106	165.9924	0.0000 
1869.717	5.5701	5.9326	165.9979	0.0000 
1869.738	5.5591	5.9436	165.9814	0.0000 
1869.829	5.6030	5.9381	165.9540	0.0000 
1869.835	5.6580	5.9052	165.8881	0.0000 
1869.835	5.6689	5.8997	165.7617	0.0000 
1869.835	5.6360	5.9381	165.6134	0.0000 
1869.835	5.5756	5.9985	165.4816	0.0000 
1869.863	5.5371	6.0809	165.3827	0.0000 
1869.884	5.5426	6.1908	165.2893	0.0000 
1869.895	5.5865	6.3171	165.1575	0.0000 
1869.913	5.6250	6.4435	164.9872	0.0000 
1869.933	5.6305	6.5753	164.7784	0.0000 
1870.008	5.5975	6.6852	164.5477	0.0000 
1870.019	5.5426	6.7841	164.3170	0.0000 
1870.019	5.4877	6.8610	164.0698	0.0000 
1870.019	5.4547	6.9104	163.8171	0.0000 
1870.041	5.4382	6.9324	163.5809	0.0000 
1870.064	5.4547	6.9324	163.3667	0.0000 
1870.073	5.5096	6.9049	163.1415	0.0000 
1870.093	5.5920	6.8500	162.8668	0.0000 
1870.112	5.6964	6.7896	162.5372	0.0000 
1870.133	5.8118	6.7346	162.2076	0.0000 
1870.152	5.9381	6.6687	161.8781	0.0000 
1870.243	6.0425	6.5588	161.5100	0.0000 
1870.249	6.1084	6.3995	161.0596	0.0000 
1870.249	6.1743	6.2567	160.5817	0.0000 
1870.249	6.2238	6.1194	160.1312	0.0000 
1870.255	6.2622	5.9821	159.7247	0.0000 
1870.274	6.3501	5.8667	159.3512	0.0000 
1870.297	6.4764	5.8282	158.9667	0.0000 
1870.319	6.5588	5.8173	158.4338	0.0000 
1870.342	6.5149	5.8173	157.7472	0.0000 
1870.417	6.3776	5.8118	157.0386	0.0000 
1870.429	6.2292	5.7678	156.4069	0.0000 
1870.429	6.1414	5.7019	155.8685	0.0000 
1870.429	6.1359	5.5756	155.4236	0.0000 
1870.435	6.1414	5.4382	154.9896	0.0000 
1870.450	6.0919	5.3723	154.5612	0.0000 
1870.471	5.9821	5.3943	154.1492	0.0000 
1870.497	5.8667	5.4602	153.7811	0.0000 
1870.516	5.7843	5.4877	153.4351	0.0000 
1870.539	5.6964	5.4547	153.0945	0.0000 
1870.551	5.6030	5.3833	152.7814	0.0000 
1870.569	5.4987	5.2844	152.5012	0.0000 
1870.639	5.4218	5.1801	152.2266	0.0000 
1870.652	5.3943	5.0867	151.9519	0.0000 
1870.652	5.3778	5.0043	151.7047	0.0000 
1870.659	5.3284	4.9438	151.4905	0.0000 
1870.672	5.2625	4.8999	151.3531	0.0000 
1870.696	5.2240	4.8779	151.2927	0.0000 
1870.715	5.2295	4.8615	151.2927	0.0000 
1870.738	5.2954	4.8285	151.2982	0.0000 
1870.820	5.3998	4.7900	151.2488	0.0000 
1870.831	5.5042	4.7516	151.1334	0.0000 
1870.831	5.5865	4.7296	151.0675	0.0000 
1870.831	5.6689	4.7186	151.0840	0.0000 
1870.838	5.7898	4.6692	151.2103	0.0000 
1870.853	5.9381	4.6143	151.3696	0.0000 
1870.874	6.0315	4.6088	151.5125	0.0000 
1870.896	6.1139	4.6417	151.6937	0.0000 
1870.918	6.1798	4.6967	151.9299	0.0000 
1870.928	6.2073	4.7406	152.2595	0.0000 
1870.948	6.2457	4.7681	152.7924	0.0000 
1870.968	6.2457	4.7571	153.4186	0.0000 
1871.052	6.1853	4.7296	153.9624	0.0000 
1871.059	6.0974	4.7516	154.4513	0.0000 
1871.059	5.9766	4.8669	154.8468	0.0000 
1871.059	5.8228	5.0043	155.1874	0.0000 
1871.067	5.6689	5.0977	155.5060	0.0000 
1871.087	5.5701	5.1416	155.8356	0.0000 
1871.107	5.5426	5.1526	156.1322	0.0000 
1871.129	5.5042	5.1416	156.3464	0.0000 
1871.151	5.3943	5.1196	156.5167	0.0000 
1871.224	5.2185	5.1251	156.6925	0.0000 
1871.236	5.0317	5.1306	156.9067	0.0000 
1871.236	4.8779	5.1196	157.1265	0.0000 
1871.236	4.7736	5.1031	157.3352	0.0000 
1871.246	4.7131	5.1141	157.5385	0.0000 
1871.266	4.6747	5.1416	157.7472	0.0000 
1871.286	4.6527	5.1691	157.9449	0.0000 
1871.305	4.6252	5.1801	158.1097	0.0000 
1871.326	4.5428	5.1746	158.1921	0.0000 
1871.349	4.4385	5.1746	158.2855	0.0000 
1871.371	4.3506	5.1526	158.4229	0.0000 
1871.449	4.2902	5.0977	158.6096	0.0000 
1871.459	4.2957	5.0317	158.7744	0.0000 
1871.459	4.3945	4.9603	158.8953	0.0000 
1871.460	4.5264	4.9054	158.9392	0.0000 
1871.468	4.6472	4.8944	158.9392	0.0000 
1871.484	4.7461	4.8999	158.8953	0.0000 
1871.504	4.8560	4.8615	158.8074	0.0000 
1871.525	5.0153	4.7845	158.7085	0.0000 
1871.546	5.1581	4.7186	158.5547	0.0000 
1871.567	5.2844	4.6417	158.3954	0.0000 
1871.588	5.4218	4.5813	158.2581	0.0000 
1871.612	5.6470	4.5374	158.1097	0.0000 
1871.684	5.8337	4.5264	157.7637	0.0000 
1871.695	5.7788	4.5264	157.2089	0.0000 
1871.695	5.5865	4.5758	156.6156	0.0000 
1871.695	5.4547	4.6362	156.1267	0.0000 
1871.704	5.4492	4.6362	155.7806	0.0000 
1871.723	5.5042	4.5758	155.5280	0.0000 
1871.743	5.5536	4.5209	155.3302	0.0000 
1871.763	5.5316	4.5209	155.1379	0.0000 
1871.783	5.4163	4.5813	154.9677	0.0000 
1871.859	5.2844	4.6692	154.8083	0.0000 
1871.870	5.1910	4.7076	154.6216	0.0000 
1871.871	5.1031	4.6967	154.4073	0.0000 
1871.871	4.9933	4.6472	154.2041	0.0000 
1871.892	4.8560	4.5703	154.0503	0.0000 
1871.902	4.7296	4.4879	153.9569	0.0000 
1871.922	4.6472	4.4110	153.8855	0.0000 
1871.942	4.5813	4.3561	153.7701	0.0000 
1871.962	4.5209	4.3451	153.6328	0.0000 
1872.037	4.4220	4.3616	153.5779	0.0000 
1872.048	4.3176	4.4055	153.6493	0.0000 
1872.049	4.2517	4.4550	153.7811	0.0000 
1872.049	4.2462	4.4879	153.9020	0.0000 
1872.068	4.2847	4.5154	153.9569	0.0000 
1872.090	4.3341	4.5374	153.9240	0.0000 
1872.101	4.3781	4.5868	153.8800	0.0000 
1872.120	4.4165	4.6582	153.8690	0.0000 
1872.140	4.4330	4.7626	153.9349	0.0000 
1872.160	4.4659	4.9219	154.1107	0.0000 
1872.180	4.5264	5.0922	154.3854	0.0000 
1872.273	4.6527	5.2405	154.6985	0.0000 
1872.280	4.7845	5.3833	154.9457	0.0000 
1872.280	4.8724	5.5426	155.1160	0.0000 
1872.280	4.9548	5.7184	155.3027	0.0000 
1872.287	4.9933	5.9381	155.5719	0.0000 
1872.305	4.9548	6.1304	155.9290	0.0000 
1872.329	4.8505	6.2128	156.4069	0.0000 
1872.348	4.7296	6.2018	156.9452	0.0000 
1872.360	4.7241	6.1194	157.5165	0.0000 
1872.379	4.7681	6.0370	158.0383	0.0000 
1872.450	4.7626	5.9766	158.4064	0.0000 
1872.462	4.7626	5.9381	158.7085	0.0000 
1872.462	4.7516	5.8722	158.9667	0.0000 
1872.468	4.7516	5.7953	159.2413	0.0000 
1872.483	4.7845	5.6909	159.4885	0.0000 
1872.500	4.8230	5.5865	159.7028	0.0000 
1872.520	4.8065	5.5042	159.8840	0.0000 
1872.539	4.7406	5.4327	160.0488	0.0000 
1872.561	4.6637	5.3943	160.1752	0.0000 
1872.579	4.6417	5.3888	160.3235	0.0000 
1872.604	4.6802	5.3833	160.4773	0.0000 
1872.681	4.7076	5.3943	160.6256	0.0000 
1872.691	4.7186	5.4492	160.7465	0.0000 
1872.692	4.7296	5.5316	160.8838	0.0000 
1872.692	4.7461	5.5920	161.0321	0.0000 
1872.698	4.7626	5.6140	161.1420	0.0000 
1872.718	4.7955	5.6305	161.2408	0.0000 
1872.738	4.8615	5.6415	161.3397	0.0000 
1872.757	4.9384	5.6250	161.4056	0.0000 
1872.777	5.0482	5.5920	161.4771	0.0000 
1872.853	5.2075	5.5701	161.5540	0.0000 
1872.864	5.4163	5.5591	161.6418	0.0000 
1872.864	5.6030	5.5371	161.6638	0.0000 
1872.864	5.7788	5.4327	161.4825	0.0000 
1872.886	5.9656	5.3064	161.2024	0.0000 
1872.896	6.1084	5.1526	160.8673	0.0000 
1872.916	6.2512	4.9603	160.5597	0.0000 
1872.936	6.4600	4.8010	160.3015	0.0000 
1872.956	6.5588	4.6582	159.9664	0.0000 
1872.977	6.4325	4.5154	159.5215	0.0000 
1872.996	6.2347	4.4275	159.0875	0.0000 
1873.085	6.1469	4.3890	158.7799	0.0000 
1873.091	6.1359	4.3396	158.5712	0.0000 
1873.091	6.1414	4.2847	158.4229	0.0000 
1873.091	6.0919	4.2792	158.3405	0.0000 
1873.097	5.9766	4.3176	158.3075	0.0000 
1873.118	5.8557	4.3726	158.2745	0.0000 
1873.139	5.7458	4.4659	158.1976	0.0000 
1873.162	5.6580	4.5593	158.0933	0.0000 
1873.183	5.5591	4.6362	158.0164	0.0000 
1873.259	5.4272	4.6802	158.0054	0.0000 
1873.271	5.2954	4.6637	158.0493	0.0000 
1873.271	5.1801	4.6143	158.1207	0.0000 
1873.271	5.1251	4.5703	158.1592	0.0000 
1873.277	5.1141	4.5319	158.1866	0.0000 
1873.294	5.0977	4.5044	158.2196	0.0000 
1873.314	5.0702	4.5044	158.2745	0.0000 
1873.333	5.0647	4.5264	158.3899	0.0000 
1873.356	5.1031	4.5593	158.5272	0.0000 
1873.379	5.2020	4.5758	158.6481	0.0000 
1873.400	5.3064	4.5758	158.6920	0.0000 
1873.421	5.3943	4.5758	158.6536	0.0000 
1873.493	5.4822	4.5813	158.5712	0.0000 
1873.505	5.5591	4.5923	158.5492	0.0000 
1873.505	5.6305	4.6198	158.6096	0.0000 
1873.506	5.7074	4.6637	158.7689	0.0000 
1873.512	5.8392	4.7186	159.0216	0.0000 
1873.532	5.9875	4.7955	159.2908	0.0000 
1873.552	6.1084	4.8724	159.5544	0.0000 
1873.572	6.2238	4.9713	159.8291	0.0000 
1873.594	6.2897	5.1251	160.1367	0.0000 
1873.668	6.2622	5.2844	160.4828	0.0000 
1873.679	6.1908	5.3943	160.9827	0.0000 
1873.679	6.1029	5.4492	161.5924	0.0000 
1873.679	6.0590	5.4877	162.1637	0.0000 
1873.701	6.0425	5.5591	162.6141	0.0000 
1873.712	5.9821	5.6525	162.9382	0.0000 
1873.732	5.9052	5.7239	163.2294	0.0000 
1873.752	5.8228	5.7404	163.4985	0.0000 
1873.772	5.8063	5.7129	163.7622	0.0000 
1873.791	5.8173	5.6580	163.9435	0.0000 
1873.811	5.8063	5.6085	164.0643	0.0000 
1873.902	5.7129	5.5811	164.1577	0.0000 
1873.909	5.5756	5.6030	164.2566	0.0000 
1873.909	5.4877	5.6635	164.3884	0.0000 
1873.909	5.4602	5.7129	164.5258	0.0000 
1873.916	5.4657	5.7568	164.6301	0.0000 
1873.934	5.4602	5.8282	164.7235	0.0000 
1873.956	5.4272	5.9052	164.8059	0.0000 
1873.979	5.3668	5.9656	164.8883	0.0000 
1873.999	5.2899	6.0095	164.9323	0.0000 
1874.077	5.2240	6.0370	164.9652	0.0000 
1874.088	5.1581	6.0260	165.0421	0.0000 
1874.088	5.1251	5.9766	165.1135	0.0000 
1874.088	5.1361	5.8997	165.1904	0.0000 
1874.094	5.2020	5.7953	165.2509	0.0000 
1874.110	5.2789	5.6964	165.3003	0.0000 
1874.130	5.3448	5.6195	165.3278	0.0000 
1874.152	5.3943	5.5646	165.3552	0.0000 
1874.175	5.4327	5.4987	165.3662	0.0000 
1874.197	5.5151	5.3943	165.3223	0.0000 
1874.221	5.6470	5.2679	165.2618	0.0000 
1874.230	5.7788	5.1306	165.1520	0.0000 
1874.313	5.9106	4.9823	165.0146	0.0000 
1874.323	6.0480	4.8724	164.8773	0.0000 
1874.323	6.2238	4.8065	164.7675	0.0000 
1874.323	6.3171	4.7900	164.5093	0.0000 
1874.330	6.2622	4.7955	164.0588	0.0000 
1874.348	6.0974	4.8615	163.5315	0.0000 
1874.369	5.9930	4.9164	163.0756	0.0000 
1874.390	5.9821	4.9329	162.7405	0.0000 
1874.413	6.0040	4.9164	162.4933	0.0000 
1874.487	6.0425	4.9329	162.3724	0.0000 
1874.498	6.0425	4.9878	162.3175	0.0000 
1874.498	5.9546	5.0977	162.2186	0.0000 
1874.498	5.8228	5.2515	162.0703	0.0000 
1874.507	5.7184	5.3998	161.9385	0.0000 
1874.527	5.5756	5.5151	161.8451	0.0000 
1874.547	5.4163	5.5920	161.7682	0.0000 
1874.566	5.2460	5.6415	161.7242	0.0000 
1874.587	5.1196	5.6525	161.7242	0.0000 
1874.608	5.0372	5.6195	161.6913	0.0000 
1874.631	4.9548	5.5701	161.5540	0.0000 
1874.726	4.8560	5.5591	161.4166	0.0000 
1874.732	4.7406	5.5865	161.3397	0.0000 
1874.732	4.6252	5.6250	161.3892	0.0000 
1874.732	4.5428	5.6689	161.5375	0.0000 
1874.732	4.5483	5.6799	161.7407	0.0000 
1874.745	4.6198	5.6580	161.9110	0.0000 
1874.765	4.7241	5.6360	161.9330	0.0000 
1874.785	4.8120	5.6305	161.9055	0.0000 
1874.805	4.8560	5.6635	161.9275	0.0000 
1874.827	4.9054	5.7129	162.0264	0.0000 
1874.897	4.9438	5.7678	162.2516	0.0000 
1874.909	5.0317	5.8447	162.5702	0.0000 
1874.909	5.1581	5.9656	162.8998	0.0000 
1874.915	5.2570	6.0974	163.2129	0.0000 
1874.932	5.3943	6.2457	163.6249	0.0000 
1874.953	5.4987	6.3831	164.0643	0.0000 
1874.973	5.4822	6.5094	164.4653	0.0000 
1874.985	5.3943	6.5973	164.9817	0.0000 
1875.004	5.2954	6.6083	165.6519	0.0000 
1875.077	5.2405	6.5863	166.3055	0.0000 
1875.088	5.1910	6.5533	166.8384	0.0000 
1875.088	5.1196	6.5259	167.2504	0.0000 
1875.094	5.0153	6.4929	167.5909	0.0000 
1875.110	4.9274	6.4325	167.9150	0.0000 
1875.132	4.8889	6.3666	168.2556	0.0000 
1875.155	4.8724	6.2952	168.6292	0.0000 
1875.164	4.8560	6.2292	169.0027	0.0000 
1875.184	4.8230	6.1798	169.3158	0.0000 
1875.203	4.7626	6.1743	169.5630	0.0000 
1875.224	4.7131	6.2128	169.7662	0.0000 
1875.310	4.6802	6.2732	169.9585	0.0000 
1875.317	4.6362	6.3281	170.1453	0.0000 
1875.317	4.5758	6.4105	170.3320	0.0000 
1875.317	4.5264	6.4929	170.5573	0.0000 
1875.323	4.4934	6.5479	170.7990	0.0000 
1875.343	4.4714	6.5643	171.0242	0.0000 
1875.364	4.4550	6.5533	171.2329	0.0000 
1875.387	4.4385	6.5259	171.4307	0.0000 
1875.408	4.4385	6.4874	171.6119	0.0000 
1875.485	4.4714	6.4545	171.7657	0.0000 
1875.497	4.5538	6.4270	171.9086	0.0000 
1875.497	4.6692	6.3995	172.0349	0.0000 
1875.497	4.8065	6.3721	172.1283	0.0000 
1875.503	4.9384	6.3336	172.1722	0.0000 
1875.521	5.0757	6.2347	172.0898	0.0000 
1875.542	5.2460	6.1084	171.9305	0.0000 
1875.561	5.4053	5.9601	171.7108	0.0000 
1875.582	5.5536	5.8228	171.4801	0.0000 
1875.606	5.7294	5.7458	171.2714	0.0000 
1875.628	5.8392	5.7184	170.9912	0.0000 
1875.720	5.7953	5.6635	170.5847	0.0000 
1875.726	5.6689	5.6085	170.1837	0.0000 
1875.726	5.6305	5.5756	169.8431	0.0000 
1875.726	5.6580	5.5316	169.6014	0.0000 
1875.727	5.6744	5.5042	169.4257	0.0000 
1875.740	5.6744	5.5151	169.3542	0.0000 
1875.760	5.6360	5.5371	169.3268	0.0000 
1875.780	5.5701	5.5920	169.2993	0.0000 
1875.800	5.5316	5.6470	169.2444	0.0000 
1875.819	5.4822	5.6964	169.1620	0.0000 
1875.896	5.4218	5.7404	169.0961	0.0000 
1875.907	5.3448	5.7349	169.0741	0.0000 
1875.908	5.2460	5.6964	169.0741	0.0000 
1875.908	5.1416	5.6250	169.0796	0.0000 
1875.929	5.0647	5.5646	169.0686	0.0000 
1875.939	5.0482	5.5151	169.0466	0.0000 
1875.959	5.0482	5.4877	169.0356	0.0000 
1875.978	5.0592	5.4877	169.0741	0.0000 
1875.998	5.0977	5.5151	169.1949	0.0000 
1876.018	5.1746	5.5426	169.3652	0.0000 
1876.038	5.3009	5.5536	169.5355	0.0000 
1876.130	5.4382	5.5481	169.6399	0.0000 
1876.137	5.5591	5.5426	169.6399	0.0000 
1876.137	5.6580	5.5646	169.5905	0.0000 
1876.137	5.7294	5.6195	169.6234	0.0000 
1876.143	5.8063	5.6744	169.7937	0.0000 
1876.164	5.9656	5.7074	170.0793	0.0000 
1876.186	6.1469	5.7184	170.4144	0.0000 
1876.198	6.3171	5.6964	170.7495	0.0000 
1876.217	6.4380	5.7513	171.0406	0.0000 
1876.308	6.5204	5.8557	171.3263	0.0000 
1876.315	6.5314	5.9106	171.6284	0.0000 
1876.315	6.4984	5.8722	172.0624	0.0000 
1876.315	6.4490	5.7623	172.5677	0.0000 
1876.321	6.4325	5.6799	173.0786	0.0000 
1876.340	6.3995	5.6635	173.4082	0.0000 
1876.362	6.3336	5.7074	173.6169	0.0000 
1876.382	6.2292	5.7678	173.7543	0.0000 
1876.404	6.1249	5.8063	173.8806	0.0000 
1876.416	6.0754	5.8063	174.0234	0.0000 
1876.435	6.0480	5.7678	174.1223	0.0000 
1876.455	6.0095	5.7239	174.1608	0.0000 
1876.539	5.9491	5.6854	174.1663	0.0000 
1876.545	5.8557	5.6854	174.1388	0.0000 
1876.545	5.7623	5.7074	174.0948	0.0000 
1876.545	5.6909	5.7404	174.0454	0.0000 
1876.556	5.6415	5.7788	174.0234	0.0000 
1876.576	5.6030	5.8173	173.9905	0.0000 
1876.595	5.5591	5.8722	173.9355	0.0000 
1876.617	5.5206	5.9271	173.8916	0.0000 
1876.637	5.4712	5.9711	173.8147	0.0000 
1876.714	5.4382	5.9985	173.7323	0.0000 
1876.725	5.4272	6.0095	173.6609	0.0000 
1876.725	5.4272	5.9985	173.6005	0.0000 
1876.725	5.4712	5.9601	173.5510	0.0000 
1876.735	5.5591	5.8997	173.4851	0.0000 
1876.754	5.6799	5.8502	173.3862	0.0000 
1876.774	5.8008	5.7898	173.2709	0.0000 
1876.794	5.8997	5.7184	173.1281	0.0000 
1876.814	5.9711	5.6085	172.9303	0.0000 
1876.834	6.0809	5.4932	172.7325	0.0000 
1876.855	6.1688	5.3943	172.5238	0.0000 
1876.945	6.2183	5.3174	172.3206	0.0000 
1876.951	6.2512	5.2679	172.1228	0.0000 
1876.951	6.3226	5.2570	171.9305	0.0000 
1876.951	6.3446	5.2899	171.6064	0.0000 
1876.957	6.1963	5.3503	171.1176	0.0000 
1876.978	5.9326	5.4053	170.5792	0.0000 
1876.999	5.7019	5.4327	170.1013	0.0000 
1877.022	5.5701	5.3833	169.7168	0.0000 
1877.033	5.5096	5.2679	169.4092	0.0000 
1877.119	5.4492	5.1581	169.1620	0.0000 
1877.130	5.3888	5.1416	168.9972	0.0000 
1877.131	5.2954	5.1910	168.8818	0.0000 
1877.131	5.1801	5.2899	168.7445	0.0000 
1877.137	5.0537	5.4053	168.5907	0.0000 
1877.152	4.9109	5.4987	168.4424	0.0000 
1877.173	4.7791	5.5756	168.3160	0.0000 
1877.196	4.6472	5.6305	168.1897	0.0000 
1877.218	4.5374	5.6525	168.0469	0.0000 
1877.239	4.4659	5.6635	167.9315	0.0000 
1877.252	4.4220	5.6689	167.8107	0.0000 
1877.271	4.3506	5.6854	167.6514	0.0000 
1877.356	4.2407	5.7349	167.5140	0.0000 
1877.362	4.1309	5.8118	167.4756	0.0000 
1877.362	4.0814	5.8887	167.5250	0.0000 
1877.362	4.1199	5.9491	167.6184	0.0000 
1877.370	4.2188	6.0040	167.6953	0.0000 
1877.392	4.3396	6.0645	167.7063	0.0000 
1877.410	4.4165	6.1414	167.6459	0.0000 
1877.433	4.4934	6.2347	167.5690	0.0000 
1877.454	4.5923	6.3171	167.5909	0.0000 
1877.533	4.6967	6.3940	167.7008	0.0000 
1877.544	4.8889	6.4819	167.8986	0.0000 
1877.544	5.0592	6.5973	168.1293	0.0000 
1877.544	5.2185	6.7181	168.3435	0.0000 
1877.559	5.3284	6.8829	168.5413	0.0000 
1877.578	5.4602	7.0532	168.7939	0.0000 
1877.592	5.6085	7.2070	169.1785	0.0000 
1877.613	5.6360	7.3224	169.6619	0.0000 
1877.637	5.5426	7.4103	170.1398	0.0000 
1877.658	5.4492	7.5037	170.5847	0.0000 
1877.669	5.3833	7.5861	170.9528	0.0000 
1877.689	5.3558	7.6355	171.2164	0.0000 
1877.772	5.3448	7.6135	171.4032	0.0000 
1877.778	5.3613	7.5092	171.6064	0.0000 
1877.778	5.3888	7.3993	171.8152	0.0000 
1877.778	5.3998	7.2949	171.9910	0.0000 
1877.787	5.3833	7.2015	172.1228	0.0000 
1877.808	5.3229	7.1301	172.2272	0.0000 
1877.828	5.2460	7.0862	172.2931	0.0000 
1877.848	5.1361	7.0532	172.3645	0.0000 
1877.871	5.0043	7.0258	172.4359	0.0000 
1877.946	4.9164	7.0313	172.5623	0.0000 
1877.956	4.8669	7.0367	172.7271	0.0000 
1877.957	4.8065	7.0313	172.8534	0.0000 
1877.957	4.7351	7.0367	172.9138	0.0000 
1877.979	4.6472	7.0422	172.9468	0.0000 
1877.987	4.5374	7.0203	173.0072	0.0000 
1878.007	4.4385	6.9708	173.0951	0.0000 
1878.028	4.3781	6.8884	173.1665	0.0000 
1878.047	4.3616	6.7841	173.2159	0.0000 
1878.067	4.3890	6.6742	173.2544	0.0000 
1878.089	4.4495	6.5808	173.2654	0.0000 
1878.183	4.5428	6.5149	173.2709	0.0000 
1878.189	4.6307	6.4764	173.3038	0.0000 
1878.189	4.7186	6.4270	173.2654	0.0000 
1878.189	4.8724	6.3171	173.1555	0.0000 
1878.189	5.0372	6.1798	172.9962	0.0000 
1878.215	5.1746	6.0260	172.8259	0.0000 
1878.227	5.2954	5.8942	172.6447	0.0000 
1878.246	5.4602	5.8337	172.4469	0.0000 
1878.266	5.5426	5.8173	172.0898	0.0000 
1878.285	5.4108	5.8228	171.5350	0.0000 
1878.360	5.1910	5.8502	170.9528	0.0000 
1878.371	4.9988	5.8612	170.4309	0.0000 
1878.371	4.9493	5.8008	170.0354	0.0000 
1878.371	4.9878	5.6909	169.7772	0.0000 
1878.395	5.0317	5.6030	169.6069	0.0000 
1878.414	5.0317	5.5756	169.4147	0.0000 
1878.425	4.9933	5.6250	169.1785	0.0000 
1878.445	4.9384	5.7184	168.9532	0.0000 
1878.464	4.8669	5.7843	168.7225	0.0000 
1878.534	4.7736	5.8228	168.4918	0.0000 
1878.545	4.6582	5.8337	168.2721	0.0000 
1878.546	4.5483	5.8063	168.1073	0.0000 
1878.552	4.4495	5.7568	167.9480	0.0000 
1878.567	4.3726	5.6854	167.7722	0.0000 
1878.588	4.3341	5.6140	167.5854	0.0000 
1878.613	4.3066	5.5426	167.4316	0.0000 
1878.631	4.2682	5.5096	167.3712	0.0000 
1878.654	4.2297	5.4822	167.4042	0.0000 
1878.664	4.2627	5.4712	167.5250	0.0000 
1878.683	4.3726	5.4437	167.6129	0.0000 
1878.765	4.5209	5.3833	167.5360	0.0000 
1878.772	4.6307	5.3558	167.3383	0.0000 
1878.772	4.6967	5.3998	167.0856	0.0000 
1878.772	4.7516	5.4932	166.9537	0.0000 
1878.782	4.8230	5.6195	166.9867	0.0000 
1878.802	4.9713	5.7513	167.1350	0.0000 
1878.822	5.1636	5.8942	167.3383	0.0000 
1878.843	5.3558	6.0040	167.5360	0.0000 
1878.865	5.5151	6.1798	167.7338	0.0000 
1878.939	5.5975	6.4160	167.9810	0.0000 
1878.951	5.5536	6.5863	168.2227	0.0000 
1878.951	5.4163	6.6302	168.5522	0.0000 
1878.952	5.3174	6.5808	168.9972	0.0000 
1878.971	5.3064	6.4984	169.4696	0.0000 
1878.982	5.2954	6.4325	169.7937	0.0000 
1879.001	5.2625	6.3776	170.0244	0.0000 
1879.021	5.1910	6.3007	170.2112	0.0000 
1879.041	5.1141	6.2018	170.3760	0.0000 
1879.060	5.0922	6.0645	170.4968	0.0000 
1879.081	5.0922	5.9216	170.6122	0.0000 
1879.176	5.0812	5.7843	170.7220	0.0000 
1879.182	5.0537	5.6525	170.8154	0.0000 
1879.182	5.0153	5.5646	170.8759	0.0000 
1879.182	4.9658	5.5316	170.9143	0.0000 
1879.182	4.9329	5.5536	170.9692	0.0000 
1879.207	4.9274	5.5811	171.0516	0.0000 
1879.229	4.8999	5.6140	171.1176	0.0000 
1879.239	4.8505	5.6525	171.1890	0.0000 
1879.259	4.7900	5.7019	171.2604	0.0000 
1879.279	4.7516	5.7404	171.3208	0.0000 
1879.349	4.7406	5.7404	171.3867	0.0000 
1879.360	4.7681	5.7349	171.4087	0.0000 
1879.360	4.8120	5.7294	171.4307	0.0000 
1879.366	4.8779	5.7294	171.4362	0.0000 
1879.381	4.9878	5.7294	171.4307	0.0000 
1879.403	5.1306	5.7404	171.4087	0.0000 
1879.424	5.2679	5.7458	171.3867	0.0000 
1879.447	5.4163	5.7349	171.3538	0.0000 
1879.459	5.5536	5.6744	171.2000	0.0000 
1879.479	5.7019	5.6030	170.9692	0.0000 
1879.498	5.8228	5.5481	170.6781	0.0000 
1879.582	5.9601	5.5096	170.3760	0.0000 
1879.589	6.1359	5.4602	170.0684	0.0000 
1879.589	6.2457	5.4163	169.6674	0.0000 
1879.589	6.1688	5.3613	169.1125	0.0000 
1879.598	5.9930	5.3503	168.5413	0.0000 
1879.618	5.8612	5.3778	168.0414	0.0000 
1879.637	5.8118	5.3558	167.6843	0.0000 
1879.658	5.7898	5.3119	167.4481	0.0000 
1879.680	5.7733	5.2899	167.3492	0.0000 
1879.757	5.7129	5.2844	167.2723	0.0000 
1879.769	5.6250	5.3064	167.1735	0.0000 
1879.769	5.5481	5.3668	167.0526	0.0000 
1879.770	5.4932	5.4163	166.9263	0.0000 
1879.777	5.3998	5.4382	166.7999	0.0000 
1879.797	5.2734	5.4492	166.7230	0.0000 
1879.816	5.1196	5.4382	166.7010	0.0000 
1879.838	4.9823	5.4053	166.7065	0.0000 
1879.857	4.9109	5.3503	166.6736	0.0000 
1879.879	4.8560	5.3009	166.6406	0.0000 
1879.903	4.7681	5.2899	166.6022	0.0000 
1879.982	4.6857	5.3174	166.6351	0.0000 
1879.993	4.6307	5.3613	166.7670	0.0000 
1879.993	4.6417	5.4108	166.9318	0.0000 
1879.993	4.6967	5.4657	167.0746	0.0000 
1880.000	4.7516	5.5426	167.1515	0.0000 
1880.015	4.8065	5.6250	167.1570	0.0000 
1880.036	4.8450	5.7294	167.0856	0.0000 
1880.058	4.8669	5.8722	167.0636	0.0000 
1880.079	4.9109	6.0535	167.2394	0.0000 
1880.156	5.0647	6.2183	167.5745	0.0000 
1880.167	5.2899	6.3446	167.9480	0.0000 
1880.167	5.4987	6.4325	168.2391	0.0000 
1880.167	5.6415	6.5808	168.5193	0.0000 
1880.174	5.6305	6.7896	168.7830	0.0000 
1880.194	5.4602	6.9653	169.1180	0.0000 
1880.214	5.2734	7.0477	169.6124	0.0000 
1880.233	5.2185	6.9983	170.2332	0.0000 
1880.254	5.2515	6.8884	170.7935	0.0000 
1880.274	5.2625	6.7896	171.1725	0.0000 
1880.296	5.2350	6.7017	171.3538	0.0000 
1880.388	5.1746	6.6248	171.4801	0.0000 
1880.394	5.1361	6.5479	171.6779	0.0000 
1880.394	5.1416	6.4655	171.9360	0.0000 
1880.394	5.1471	6.3666	172.1832	0.0000 
1880.394	5.1086	6.2842	172.3700	0.0000 
1880.420	5.0592	6.2512	172.5238	0.0000 
1880.443	5.0482	6.2457	172.6831	0.0000 
1880.452	5.0922	6.2347	172.8259	0.0000 
1880.472	5.1141	6.2238	172.8864	0.0000 
1880.492	5.0867	6.2347	172.9138	0.0000 
1880.562	5.0208	6.2622	172.9797	0.0000 
1880.573	4.9493	6.2897	173.0786	0.0000 
1880.574	4.9054	6.3007	173.2050	0.0000 
1880.581	4.8944	6.3007	173.3093	0.0000 
1880.595	4.8889	6.2842	173.3423	0.0000 
1880.616	4.9164	6.2512	173.3313	0.0000 
1880.638	4.9493	6.2183	173.3258	0.0000 
1880.660	5.0153	6.1963	173.3368	0.0000 
1880.671	5.1251	6.1798	173.3862	0.0000 
1880.693	5.2679	6.1304	173.4576	0.0000 
1880.711	5.4382	6.0095	173.4082	0.0000 
1880.796	5.6470	5.8557	173.2214	0.0000 
1880.802	5.8228	5.6909	172.9028	0.0000 
1880.802	6.0040	5.5096	172.5183	0.0000 
1880.802	6.2128	5.3174	172.1063	0.0000 
1880.811	6.2402	5.1746	171.6394	0.0000 
1880.831	6.0809	5.0812	171.1560	0.0000 
1880.851	5.9436	5.0317	170.7770	0.0000 
1880.872	5.9161	4.9988	170.4913	0.0000 
1880.896	5.9326	4.9713	170.2496	0.0000 
1880.970	5.9216	4.9823	170.0574	0.0000 
1880.981	5.8612	5.0317	169.9310	0.0000 
1880.981	5.7513	5.0702	169.8376	0.0000 
1880.981	5.6305	5.1141	169.7552	0.0000 
1880.991	5.5646	5.1691	169.6454	0.0000 
1881.010	5.5261	5.2130	169.5355	0.0000 
1881.029	5.4163	5.2460	169.4476	0.0000 
1881.049	5.2570	5.2789	169.3982	0.0000 
1881.070	5.1251	5.2954	169.3817	0.0000 
1881.090	5.0537	5.2844	169.3817	0.0000 
1881.112	5.0043	5.2734	169.3817	0.0000 
1881.206	4.9548	5.2789	169.3707	0.0000 
1881.212	4.8889	5.3174	169.3872	0.0000 
1881.212	4.8230	5.3723	169.4916	0.0000 
1881.212	4.8340	5.4272	169.7058	0.0000 
1881.212	4.9329	5.4437	169.9640	0.0000 
1881.238	5.0647	5.4492	170.1453	0.0000 
1881.248	5.1691	5.4657	170.1947	0.0000 
1881.268	5.2130	5.5042	170.1453	0.0000 
1881.288	5.2240	5.5756	170.1288	0.0000 
1881.308	5.2515	5.6525	170.2222	0.0000 
1881.383	5.3448	5.7129	170.4529	0.0000 
1881.394	5.5481	5.7843	170.7660	0.0000 
1881.395	5.7404	5.8887	171.0846	0.0000 
1881.395	5.9601	6.0315	171.4087	0.0000 
1881.414	6.1084	6.2567	171.7548	0.0000 
1881.427	6.1194	6.4325	172.0459	0.0000 
1881.447	6.0095	6.5204	172.3975	0.0000 
1881.466	5.8942	6.4984	172.8973	0.0000 
1881.487	5.8557	6.4160	173.4521	0.0000 
1881.506	5.8777	6.3007	173.8971	0.0000 
1881.526	5.8722	6.1908	174.2157	0.0000 
1881.617	5.7678	6.0919	174.4244	0.0000 
1881.624	5.6415	6.0150	174.6332	0.0000 
1881.624	5.5371	5.9052	174.8749	0.0000 
1881.624	5.4547	5.7898	175.1056	0.0000 
1881.631	5.3778	5.7019	175.3088	0.0000 
1881.648	5.3119	5.6580	175.4901	0.0000 
1881.669	5.2295	5.6470	175.6274	0.0000 
1881.691	5.1691	5.6580	175.7428	0.0000 
1881.713	5.1361	5.6854	175.8527	0.0000 
1881.788	5.1141	5.7239	175.9790	0.0000 
1881.799	5.0757	5.7788	176.1218	0.0000 
1881.799	5.0098	5.8392	176.2482	0.0000 
1881.799	4.9493	5.8832	176.3470	0.0000 
1881.805	4.9164	5.9106	176.3855	0.0000 
1881.824	4.9438	5.9161	176.3965	0.0000 
1881.844	4.9988	5.9216	176.3910	0.0000 
1881.865	5.0812	5.9216	176.3635	0.0000 
1881.888	5.1965	5.9052	176.3306	0.0000 
1881.910	5.3394	5.8997	176.3306	0.0000 
1881.929	5.4877	5.8887	176.3196	0.0000 
1881.952	5.7184	5.8392	176.2207	0.0000 
1882.019	5.9546	5.7788	175.9845	0.0000 
1882.031	6.0919	5.6799	175.6439	0.0000 
1882.032	6.2512	5.5536	175.3198	0.0000 
1882.032	6.4709	5.3943	174.9957	0.0000 
1882.052	6.5149	5.2570	174.4849	0.0000 
1882.063	6.3281	5.1746	173.8422	0.0000 
1882.083	6.1578	5.1416	173.2654	0.0000 
1882.103	6.1249	5.0977	172.8369	0.0000 
1882.123	6.1578	5.0098	172.5128	0.0000 
1882.198	6.1853	4.9493	172.2546	0.0000 
1882.209	6.1963	4.9384	172.0129	0.0000 
1882.210	6.1084	4.9548	171.7548	0.0000 
1882.210	6.0095	4.9933	171.5295	0.0000 
1882.234	5.9381	5.0153	171.3098	0.0000 
1882.253	5.8667	5.0208	171.0736	0.0000 
1882.263	5.7623	5.0153	170.8484	0.0000 
1882.282	5.6305	4.9878	170.7001	0.0000 
1882.302	5.5261	4.9493	170.5847	0.0000 
1882.322	5.4602	4.8779	170.4144	0.0000 
1882.342	5.3998	4.8230	170.2002	0.0000 
1882.429	5.3668	4.7900	170.0079	0.0000 
1882.435	5.3394	4.7845	169.8541	0.0000 
1882.435	5.3174	4.8065	169.7607	0.0000 
1882.435	5.3229	4.8450	169.7388	0.0000 
1882.442	5.3613	4.8999	169.7113	0.0000 
1882.462	5.4108	4.9768	169.6399	0.0000 
1882.482	5.5096	5.0812	169.5465	0.0000 
1882.509	5.6195	5.1636	169.4421	0.0000 
1882.521	5.7019	5.2515	169.3158	0.0000 
1882.600	5.7678	5.3778	169.2499	0.0000 
1882.611	5.8612	5.5261	169.3323	0.0000 
1882.611	6.0425	5.6305	169.5740	0.0000 
1882.612	6.2897	5.7184	169.8981	0.0000 
1882.620	6.5533	5.7898	170.2496	0.0000 
1882.640	6.8610	5.8997	170.6342	0.0000 
1882.660	7.0862	6.1139	171.0242	0.0000 
1882.679	7.1027	6.3666	171.3483	0.0000 
1882.700	7.0203	6.5808	171.7438	0.0000 
1882.720	6.9598	6.6852	172.2766	0.0000 
1882.744	6.9818	6.6797	172.8094	0.0000 
1882.834	7.0532	6.6577	173.2214	0.0000 
1882.840	7.0917	6.6412	173.4576	0.0000 
1882.840	7.0642	6.6357	173.6005	0.0000 
1882.840	7.0148	6.6302	173.7268	0.0000 
1882.840	6.9818	6.5918	173.8531	0.0000 
1882.866	6.9434	6.5149	173.9410	0.0000 
1882.879	6.8939	6.4325	173.9465	0.0000 
1882.898	6.8390	6.3885	173.9191	0.0000 
1882.918	6.8060	6.3995	173.9081	0.0000 
1882.938	6.8005	6.4435	173.9136	0.0000 
1883.009	6.8115	6.5149	173.9355	0.0000 
1883.020	6.8225	6.6138	173.9850	0.0000 
1883.020	6.8005	6.7017	174.0839	0.0000 
1883.026	6.7621	6.7566	174.1608	0.0000 
1883.043	6.7181	6.7786	174.2212	0.0000 
1883.064	6.6687	6.7950	174.2596	0.0000 
1883.086	6.6138	6.7841	174.2651	0.0000 
1883.097	6.5369	6.7456	174.2651	0.0000 
1883.117	6.4984	6.6742	174.3201	0.0000 
1883.137	6.5094	6.5643	174.4025	0.0000 
1883.158	6.5643	6.4490	174.4409	0.0000 
1883.242	6.6248	6.3446	174.4519	0.0000 
1883.249	6.6687	6.2512	174.4684	0.0000 
1883.249	6.6907	6.1469	174.4464	0.0000 
1883.249	6.7181	5.9930	174.3530	0.0000 
1883.256	6.8115	5.8447	174.2267	0.0000 
1883.276	6.8939	5.6909	174.0399	0.0000 
1883.297	6.9708	5.5756	173.8367	0.0000 
1883.319	7.0313	5.5042	173.6279	0.0000 
1883.340	7.1027	5.4767	173.3643	0.0000 
1883.418	7.0532	5.4822	172.9468	0.0000 
1883.429	6.8445	5.5206	172.3810	0.0000 
1883.429	6.6577	5.5536	171.8317	0.0000 
1883.429	6.5643	5.5426	171.3867	0.0000 
1883.435	6.5369	5.4987	171.0242	0.0000 
1883.454	6.5643	5.4492	170.7770	0.0000 
1883.475	6.5808	5.4437	170.5902	0.0000 
1883.495	6.5149	5.4987	170.3815	0.0000 
1883.516	6.4270	5.6195	170.1563	0.0000 
1883.536	6.3666	5.7513	169.9640	0.0000 
1883.560	6.2677	5.8612	169.7772	0.0000 
1883.652	6.1633	5.9546	169.6124	0.0000 
1883.658	6.0260	6.0150	169.4751	0.0000 
1883.658	5.8942	6.0590	169.3762	0.0000 
1883.659	5.7678	6.0809	169.2883	0.0000 
1883.659	5.6744	6.0754	169.1785	0.0000 
1883.684	5.5865	6.0480	169.0411	0.0000 
1883.694	5.4492	6.0590	168.9423	0.0000 
1883.714	5.3229	6.0974	168.9368	0.0000 
1883.734	5.2625	6.1469	169.0466	0.0000 
1883.754	5.2734	6.1798	169.2059	0.0000 
1883.826	5.3723	6.1633	169.3488	0.0000 
1883.836	5.4822	6.1359	169.3817	0.0000 
1883.837	5.5811	6.1359	169.2828	0.0000 
1883.843	5.6744	6.1469	169.1620	0.0000 
1883.859	5.7294	6.1578	169.1016	0.0000 
1883.880	5.8447	6.1798	169.1290	0.0000 
1883.903	5.9821	6.2073	169.2279	0.0000 
1883.913	6.1414	6.2128	169.3597	0.0000 
1883.932	6.3446	6.2073	169.5905	0.0000 
1883.952	6.4600	6.2238	169.8047	0.0000 
1883.972	6.4380	6.2018	170.0244	0.0000 
1884.059	6.3776	6.1414	170.3870	0.0000 
1884.066	6.3281	6.0645	170.8649	0.0000 
1884.066	6.2842	6.0370	171.3043	0.0000 
1884.066	6.1798	6.0645	171.6174	0.0000 
1884.073	6.0699	6.1304	171.8481	0.0000 
1884.091	5.9985	6.1578	172.0679	0.0000 
1884.114	5.9711	6.1139	172.2711	0.0000 
1884.136	5.9656	6.0535	172.4304	0.0000 
1884.158	5.9821	6.0370	172.5897	0.0000 
1884.237	5.9711	6.0370	172.7765	0.0000 
1884.248	5.9271	6.0480	172.9413	0.0000 
1884.248	5.8392	6.0809	173.0676	0.0000 
1884.248	5.7568	6.1304	173.1555	0.0000 
1884.254	5.7019	6.1853	173.2544	0.0000 
1884.270	5.6635	6.2347	173.3588	0.0000 
1884.293	5.6195	6.3116	173.4686	0.0000 
1884.313	5.5865	6.3940	173.5510	0.0000 
1884.336	5.5481	6.4490	173.6115	0.0000 
1884.357	5.4822	6.4874	173.6334	0.0000 
1884.379	5.4218	6.5039	173.5785	0.0000 
1884.389	5.4327	6.4764	173.4686	0.0000 
1884.470	5.5096	6.4270	173.3423	0.0000 
1884.476	5.6525	6.3611	173.2214	0.0000 
1884.476	5.8228	6.2842	173.1006	0.0000 
1884.476	5.9930	6.1798	172.9303	0.0000 
1884.489	6.2347	6.0645	172.7435	0.0000 
1884.508	6.4435	5.9601	172.5128	0.0000 
1884.528	6.6248	5.8777	172.2656	0.0000 
1884.549	6.8500	5.7953	172.0129	0.0000 
1884.570	6.9818	5.7074	171.6449	0.0000 
1884.643	6.8555	5.6305	171.0901	0.0000 
1884.655	6.6138	5.6415	170.4858	0.0000 
1884.656	6.4435	5.6909	169.9585	0.0000 
1884.656	6.4105	5.7129	169.5740	0.0000 
1884.678	6.4435	5.6909	169.2828	0.0000 
1884.689	6.4270	5.6854	169.0027	0.0000 
1884.709	6.3336	5.7184	168.7445	0.0000 
1884.727	6.2183	5.7733	168.5358	0.0000 
1884.747	6.1469	5.8008	168.3710	0.0000 
1884.768	6.0864	5.7843	168.1897	0.0000 
1884.788	5.9766	5.7458	168.0139	0.0000 
1884.878	5.8282	5.7019	167.8601	0.0000 
1884.885	5.6195	5.6525	167.7283	0.0000 
1884.885	5.4327	5.5756	167.6074	0.0000 
1884.885	5.3229	5.4822	167.4756	0.0000 
1884.891	5.2570	5.3833	167.3547	0.0000 
1884.910	5.1636	5.2844	167.2943	0.0000 
1884.933	5.0812	5.2130	167.2668	0.0000 
1884.956	5.0317	5.1636	167.2778	0.0000 
1884.967	5.0208	5.1361	167.3218	0.0000 
1885.054	5.0317	5.1196	167.3602	0.0000 
1885.065	5.0812	5.1196	167.3273	0.0000 
1885.065	5.1251	5.1581	167.2284	0.0000 
1885.065	5.1416	5.2570	167.1075	0.0000 
1885.072	5.1855	5.3943	167.0691	0.0000 
1885.086	5.2460	5.5261	167.1515	0.0000 
1885.110	5.3613	5.6415	167.3492	0.0000 
1885.131	5.5591	5.7513	167.6019	0.0000 
1885.154	5.7678	5.7953	167.8217	0.0000 
1885.228	6.0205	5.8282	168.0524	0.0000 
1885.239	6.1908	5.8942	168.2941	0.0000 
1885.239	6.2128	6.0315	168.5522	0.0000 
1885.239	6.1359	6.1523	168.8928	0.0000 
1885.245	6.0425	6.1743	169.3542	0.0000 
1885.264	5.9601	6.1414	169.7937	0.0000 
1885.285	5.9052	6.1139	170.1068	0.0000 
1885.304	5.8777	6.0919	170.3375	0.0000 
1885.327	5.8337	6.0535	170.4858	0.0000 
1885.347	5.7568	5.9985	170.6177	0.0000 
1885.370	5.7239	5.9326	170.7825	0.0000 
1885.393	5.6909	5.8612	170.9637	0.0000 
1885.461	5.6580	5.7898	171.0956	0.0000 
1885.472	5.6305	5.7458	171.1670	0.0000 
1885.472	5.6250	5.7294	171.2329	0.0000 
1885.472	5.6360	5.7019	171.2933	0.0000 
1885.494	5.6470	5.7074	171.3373	0.0000 
1885.504	5.6799	5.7568	171.3702	0.0000 
1885.523	5.7019	5.8337	171.4142	0.0000 
1885.543	5.7074	5.9161	171.4636	0.0000 
1885.563	5.7129	5.9875	171.5295	0.0000 
1885.635	5.7568	6.0370	171.6339	0.0000 
1885.646	5.8447	6.0260	171.7438	0.0000 
1885.646	5.9711	5.9381	171.7822	0.0000 
1885.652	6.0919	5.8118	171.7712	0.0000 
1885.668	6.2183	5.7019	171.7548	0.0000 
1885.689	6.3281	5.6525	171.6998	0.0000 
1885.711	6.4215	5.6195	171.6010	0.0000 
1885.722	6.5753	5.5151	171.4417	0.0000 
1885.742	6.7731	5.3448	171.2329	0.0000 
1885.761	6.9434	5.1526	170.9583	0.0000 
1885.781	7.1191	4.9603	170.6946	0.0000 
1885.871	7.3004	4.7791	170.4254	0.0000 
1885.877	7.4048	4.6307	170.1288	0.0000 
1885.877	7.3224	4.4879	169.7388	0.0000 
1885.877	7.1851	4.4055	169.3268	0.0000 
1885.883	7.1082	4.4000	168.9368	0.0000 
1885.903	7.1027	4.4055	168.6292	0.0000 
1885.932	7.1191	4.4165	168.4589	0.0000 
1885.947	7.1027	4.4440	168.3710	0.0000 
1885.970	7.0367	4.4714	168.2831	0.0000 
1886.045	6.9434	4.5209	168.1677	0.0000 
1886.057	6.8994	4.6143	168.0743	0.0000 
1886.057	6.8829	4.6857	168.0029	0.0000 
1886.057	6.8500	4.7241	167.9755	0.0000 
1886.063	6.7786	4.7571	167.9645	0.0000 
1886.079	6.6797	4.7845	167.9974	0.0000 
1886.100	6.5973	4.8010	168.0304	0.0000 
1886.121	6.5533	4.7955	168.0304	0.0000 
1886.144	6.4984	4.8175	167.9974	0.0000 
1886.167	6.4105	4.8889	167.9865	0.0000 
1886.188	6.3391	5.0153	168.0743	0.0000 
1886.199	6.3226	5.1361	168.2281	0.0000 
1886.279	6.3885	5.2405	168.4259	0.0000 
1886.290	6.4764	5.3339	168.6182	0.0000 
1886.290	6.5863	5.4053	168.7335	0.0000 
1886.290	6.6907	5.4602	168.7665	0.0000 
1886.298	6.7236	5.5151	168.7720	0.0000 
1886.318	6.7236	5.5865	168.8379	0.0000 
1886.337	6.7731	5.6635	168.9807	0.0000 
1886.358	6.8280	5.7513	169.1345	0.0000 
1886.379	6.8774	5.8337	169.2773	0.0000 
1886.456	6.9159	5.9601	169.4476	0.0000 
1886.467	6.9049	6.0864	169.6454	0.0000 
1886.467	6.8829	6.1084	169.9475	0.0000 
1886.468	6.8115	6.0260	170.3595	0.0000 
1886.478	6.7236	5.9271	170.8484	0.0000 
1886.498	6.6522	5.8612	171.3647	0.0000 
1886.517	6.5808	5.8337	171.8207	0.0000 
1886.537	6.5149	5.8118	172.1722	0.0000 
1886.557	6.4380	5.7733	172.4249	0.0000 
1886.578	6.3501	5.7184	172.6117	0.0000 
1886.598	6.2952	5.6525	172.8040	0.0000 
1886.691	6.2457	5.5756	173.0566	0.0000 
1886.698	6.1743	5.4877	173.3093	0.0000 
1886.698	6.0974	5.4272	173.5400	0.0000 
1886.698	6.0205	5.3833	173.7268	0.0000 
1886.698	5.9601	5.3888	173.8806	0.0000 
1886.723	5.9271	5.4272	174.0179	0.0000 
1886.746	5.9546	5.4877	174.1663	0.0000 
1886.757	5.9875	5.5536	174.3365	0.0000 
1886.776	5.9821	5.6360	174.4684	0.0000 
1886.795	5.9381	5.7294	174.5618	0.0000 
1886.868	5.8612	5.8392	174.6387	0.0000 
1886.879	5.7788	5.8997	174.6991	0.0000 
1886.879	5.7458	5.8942	174.7595	0.0000 
1886.885	5.7733	5.8557	174.8254	0.0000 
1886.902	5.8173	5.7953	174.8419	0.0000 
1886.926	5.8612	5.7294	174.8145	0.0000 
1886.935	5.8942	5.6799	174.7815	0.0000 
1886.954	5.9766	5.5811	174.7211	0.0000 
1886.975	6.1304	5.3833	174.5563	0.0000 
1886.994	6.3501	5.1416	174.3420	0.0000 
1887.015	6.5149	4.8944	174.0344	0.0000 
1887.110	6.6412	4.6912	173.6829	0.0000 
1887.116	6.7511	4.5593	173.3588	0.0000 
1887.116	6.8665	4.4604	173.0182	0.0000 
1887.116	6.8610	4.3616	172.5568	0.0000 
1887.116	6.6522	4.3341	171.9415	0.0000 
1887.142	6.4545	4.3890	171.3483	0.0000 
1887.153	6.3611	4.4495	170.9143	0.0000 
1887.173	6.3226	4.4440	170.6012	0.0000 
1887.193	6.2842	4.4275	170.3485	0.0000 
1887.213	6.2183	4.4440	170.1288	0.0000 
1887.287	6.1029	4.5209	169.8981	0.0000 
1887.300	5.9766	4.6198	169.6674	0.0000 
1887.300	5.8722	4.7021	169.4586	0.0000 
1887.300	5.7568	4.7516	169.2279	0.0000 
1887.319	5.6030	4.7681	168.9587	0.0000 
1887.339	5.4163	4.7736	168.6896	0.0000 
1887.362	5.2350	4.8010	168.4424	0.0000 
1887.372	5.1086	4.7900	168.2117	0.0000 
1887.393	5.0043	4.7516	167.9480	0.0000 
1887.411	4.8889	4.7351	167.6898	0.0000 
1887.431	4.7791	4.7296	167.4811	0.0000 
1887.519	4.6692	4.7131	167.3273	0.0000 
1887.534	4.5813	4.7186	167.2064	0.0000 
1887.534	4.5319	4.7461	167.0966	0.0000 
1887.534	4.5154	4.7736	166.9922	0.0000 
1887.541	4.5154	4.7845	166.8329	0.0000 
1887.553	4.5044	4.8010	166.6077	0.0000 
1887.573	4.4714	4.8395	166.3770	0.0000 
1887.596	4.4440	4.9438	166.2341	0.0000 
1887.618	4.4659	5.0867	166.1957	0.0000 
1887.694	4.5374	5.2130	166.2781	0.0000 
1887.705	4.6472	5.3284	166.4484	0.0000 
1887.705	4.8230	5.4877	166.6681	0.0000 
1887.705	4.9658	5.6525	166.8768	0.0000 
1887.712	5.1086	5.8392	167.1295	0.0000 
1887.730	5.2460	6.0535	167.4316	0.0000 
1887.749	5.2350	6.2732	167.6788	0.0000 
1887.769	5.0977	6.4270	167.8986	0.0000 
1887.793	4.9384	6.5424	168.2611	0.0000 
1887.872	4.8505	6.5424	168.7500	0.0000 
1887.883	4.9164	6.4380	169.1949	0.0000 
1887.884	4.9988	6.3281	169.5135	0.0000 
1887.884	5.0592	6.2183	169.7278	0.0000 
1887.890	5.1361	6.0864	169.9146	0.0000 
1887.909	5.1965	5.9546	170.0793	0.0000 
1887.929	5.2734	5.8337	170.1892	0.0000 
1887.949	5.3448	5.7184	170.2551	0.0000 
1887.971	5.3394	5.6305	170.2936	0.0000 
1887.994	5.3119	5.5975	170.3430	0.0000 
1888.016	5.3229	5.5591	170.4144	0.0000 
1888.037	5.3613	5.4932	170.4529	0.0000 
1888.108	5.4327	5.4492	170.4529	0.0000 
1888.120	5.5371	5.4272	170.4694	0.0000 
1888.120	5.6250	5.3998	170.5023	0.0000 
1888.120	5.6744	5.3888	170.5353	0.0000 
1888.128	5.7019	5.3943	170.5737	0.0000 
1888.147	5.7349	5.3833	170.6012	0.0000 
1888.167	5.7953	5.3339	170.6067	0.0000 
1888.187	5.8887	5.2515	170.5902	0.0000 
1888.209	5.9766	5.1526	170.5188	0.0000 
1888.287	6.0919	5.0592	170.4474	0.0000 
1888.297	6.2512	4.9713	170.4034	0.0000 
1888.298	6.4215	4.8779	170.3101	0.0000 
1888.298	6.6083	4.7900	170.1453	0.0000 
1888.319	6.7456	4.7186	169.8981	0.0000 
1888.326	6.8829	4.6527	169.6399	0.0000 
1888.346	7.0697	4.6417	169.4202	0.0000 
1888.366	7.1631	4.6967	169.0576	0.0000 
1888.386	7.0367	4.7296	168.4698	0.0000 
1888.407	6.7456	4.7791	167.8436	0.0000 
1888.428	6.4929	4.8175	167.3273	0.0000 
1888.508	6.3885	4.8120	166.9702	0.0000 
1888.520	6.3940	4.7351	166.7340	0.0000 
1888.521	6.3831	4.6417	166.5417	0.0000 
1888.521	6.2952	4.5813	166.3989	0.0000 
1888.527	6.1359	4.5758	166.3055	0.0000 
1888.545	5.9930	4.6143	166.2451	0.0000 
1888.565	5.9271	4.6472	166.1298	0.0000 
1888.585	5.8228	4.6472	165.9814	0.0000 
1888.605	5.6525	4.6307	165.8551	0.0000 
1888.683	5.4492	4.5868	165.7892	0.0000 
1888.695	5.2954	4.4989	165.7892	0.0000 
1888.695	5.2185	4.3671	165.7727	0.0000 
1888.695	5.2185	4.2462	165.7343	0.0000 
1888.705	5.2405	4.1528	165.7068	0.0000 
1888.724	5.2570	4.1034	165.7233	0.0000 
1888.744	5.2789	4.0759	165.7892	0.0000 
1888.764	5.3229	4.0704	165.9210	0.0000 
1888.785	5.4327	4.0649	166.0419	0.0000 
1888.804	5.5591	4.0485	166.0364	0.0000 
1888.827	5.6470	4.0594	165.8496	0.0000 
1888.917	5.6964	4.1309	165.6903	0.0000 
1888.923	5.7184	4.2297	165.7178	0.0000 
1888.923	5.8447	4.3176	165.9540	0.0000 
1888.923	6.0370	4.3396	166.2616	0.0000 
1888.923	6.2292	4.3286	166.5308	0.0000 
1888.951	6.3007	4.4659	166.7450	0.0000 
1888.972	6.1798	4.6747	166.8164	0.0000 
1888.983	5.8997	4.8010	166.9812	0.0000 
1889.002	5.6195	4.8285	167.3547	0.0000 
1889.022	5.4877	4.7461	167.9041	0.0000 
1889.093	5.4712	4.6527	168.3984	0.0000 
1889.104	5.4327	4.6307	168.6786	0.0000 
1889.104	5.3613	4.6527	168.8159	0.0000 
1889.110	5.2405	4.6692	168.9807	0.0000 
1889.126	5.1636	4.6362	169.2279	0.0000 
1889.145	5.1471	4.5428	169.4696	0.0000 
1889.169	5.1416	4.4550	169.6564	0.0000 
1889.192	5.0922	4.4055	169.7662	0.0000 
1889.201	5.0427	4.4000	169.8541	0.0000 
1889.222	4.9933	4.4220	169.9310	0.0000 
1889.242	4.9658	4.4550	170.0134	0.0000 
1889.326	4.9493	4.5099	170.1178	0.0000 
1889.332	4.9438	4.5813	170.2167	0.0000 
1889.332	4.9274	4.6362	170.3265	0.0000 
1889.332	4.8889	4.6582	170.4144	0.0000 
1889.341	4.8560	4.6747	170.4968	0.0000 
1889.360	4.8615	4.6747	170.5627	0.0000 
1889.381	4.8999	4.6527	170.6232	0.0000 
1889.402	4.9384	4.6088	170.6836	0.0000 
1889.425	4.9713	4.5374	170.6946	0.0000 
1889.515	5.0482	4.4385	170.6396	0.0000 
1889.527	5.1581	4.3231	170.5957	0.0000 
1889.527	5.3064	4.2078	170.6012	0.0000 
1889.527	5.5426	4.0430	170.5298	0.0000 
1889.527	5.7898	3.8617	170.3595	0.0000 
1889.547	5.9930	3.7189	170.1398	0.0000 
1889.560	6.1853	3.6145	169.8981	0.0000 
1889.579	6.4050	3.5431	169.6344	0.0000 
1889.599	6.4929	3.4717	169.2389	0.0000 
1889.619	6.3721	3.4332	168.6786	0.0000 
1889.639	6.1633	3.4937	168.0743	0.0000 
1889.659	6.0315	3.5870	167.5360	0.0000 
1889.747	6.0095	3.6090	167.1185	0.0000 
1889.753	6.0095	3.6035	166.8439	0.0000 
1889.753	5.9711	3.6255	166.6846	0.0000 
1889.753	5.8887	3.6859	166.5637	0.0000 
1889.759	5.7788	3.7903	166.3989	0.0000 
1889.779	5.6744	3.9056	166.1737	0.0000 
1889.801	5.5591	4.0210	165.8881	0.0000 
1889.823	5.4218	4.1199	165.6464	0.0000 
1889.845	5.2405	4.1693	165.4926	0.0000 
1889.920	5.0208	4.1968	165.3772	0.0000 
1889.932	4.8669	4.1858	165.2728	0.0000 
1889.932	4.7516	4.1364	165.1355	0.0000 
1889.932	4.6417	4.0869	164.9762	0.0000 
1889.938	4.4934	4.0814	164.8444	0.0000 
1889.957	4.3396	4.1364	164.8279	0.0000 
1889.976	4.2462	4.2133	164.9213	0.0000 
1889.996	4.2352	4.2627	165.0806	0.0000 
1890.018	4.2792	4.2957	165.2124	0.0000 
1890.039	4.3451	4.3286	165.2289	0.0000 
1890.062	4.4055	4.3781	165.1849	0.0000 
1890.085	4.4604	4.4604	165.2014	0.0000 
1890.155	4.4879	4.5978	165.3552	0.0000 
1890.166	4.5978	4.7681	165.7178	0.0000 
1890.166	4.7516	4.9548	166.1353	0.0000 
1890.166	4.8834	5.1416	166.5088	0.0000 
1890.175	5.0043	5.3778	166.8713	0.0000 
1890.195	4.9109	5.6470	167.0801	0.0000 
1890.215	4.6307	5.8557	167.1790	0.0000 
1890.235	4.3286	5.9271	167.4811	0.0000 
1890.255	4.1693	5.8282	168.0634	0.0000 
1890.328	4.1748	5.6305	168.6786	0.0000 
1890.339	4.1473	5.4492	169.0741	0.0000 
1890.340	4.0924	5.3284	169.2389	0.0000 
1890.340	4.0320	5.2350	169.3213	0.0000 
1890.362	3.9441	5.1306	169.3982	0.0000 
1890.381	3.9221	5.0208	169.5190	0.0000 
1890.402	3.9331	4.9164	169.6619	0.0000 
1890.414	3.9221	4.8285	169.7717	0.0000 
1890.433	3.9001	4.7955	169.8706	0.0000 
1890.453	3.9056	4.7955	169.9475	0.0000 
1890.473	3.9441	4.8230	169.9695	0.0000 
1890.559	4.0155	4.8669	169.9969	0.0000 
1890.566	4.0814	4.9329	170.0299	0.0000 
1890.566	4.1199	5.0098	170.0629	0.0000 
1890.566	4.1473	5.0922	170.0793	0.0000 
1890.572	4.1748	5.1746	170.0684	0.0000 
1890.592	4.2133	5.2240	170.0024	0.0000 
1890.613	4.3011	5.2460	169.8871	0.0000 
1890.638	4.4604	5.2295	169.7772	0.0000 
1890.664	4.6582	5.1746	169.7113	0.0000 
1890.735	4.8505	5.1031	169.6124	0.0000 
1890.748	5.0262	5.0098	169.4202	0.0000 
1890.748	5.3009	4.8560	169.1510	0.0000 
1890.748	5.5756	4.7021	168.8159	0.0000 
1890.754	5.7678	4.5483	168.4204	0.0000 
1890.772	5.9326	4.4055	168.0579	0.0000 
1890.792	6.1249	4.2847	167.7393	0.0000 
1890.813	6.1688	4.1309	167.2284	0.0000 
1890.835	6.0864	3.9935	166.5802	0.0000 
1890.855	5.9821	3.9825	165.9430	0.0000 
1890.878	5.9271	4.0100	165.4376	0.0000 
1890.967	5.9326	4.0155	165.1245	0.0000 
1890.973	5.9546	4.0155	164.9268	0.0000 
1890.973	5.9271	4.0155	164.7565	0.0000 
1890.973	5.8612	4.0430	164.5367	0.0000 
1890.973	5.7953	4.1199	164.3170	0.0000 
1891.000	5.7404	4.2133	164.1193	0.0000 
1891.011	5.6799	4.2517	164.0259	0.0000 
1891.030	5.5591	4.2133	164.0039	0.0000 
1891.050	5.3998	4.1528	163.9984	0.0000 
1891.070	5.2625	4.1034	164.0204	0.0000 
1891.142	5.1855	4.0320	164.0863	0.0000 
1891.155	5.1416	3.9441	164.1412	0.0000 
1891.155	5.1361	3.8947	164.1687	0.0000 
1891.162	5.1691	3.9166	164.2017	0.0000 
1891.176	5.2350	3.9606	164.2896	0.0000 
1891.197	5.3009	4.0100	164.4763	0.0000 
1891.220	5.4437	4.0814	164.7345	0.0000 
1891.230	5.5920	4.1528	164.9597	0.0000 
1891.249	5.6799	4.2462	165.0146	0.0000 
1891.269	5.7239	4.3945	164.9872	0.0000 
1891.288	5.7733	4.6088	165.0476	0.0000 
1891.383	5.8997	4.8120	165.2673	0.0000 
1891.390	6.1359	4.9823	165.6079	0.0000 
1891.390	6.3666	5.1251	165.9155	0.0000 
1891.390	6.5808	5.2954	166.1957	0.0000 
1891.391	6.7401	5.4877	166.4758	0.0000 
1891.417	6.7676	5.6415	166.6846	0.0000 
1891.438	6.6907	5.7898	166.9043	0.0000 
1891.447	6.6193	5.8887	167.3273	0.0000 
1891.467	6.6028	5.8722	167.8436	0.0000 
1891.487	6.5973	5.8008	168.2227	0.0000 
1891.558	6.5863	5.7294	168.4424	0.0000 
1891.570	6.5424	5.6415	168.6017	0.0000 
1891.571	6.4984	5.5481	168.7610	0.0000 
1891.578	6.4984	5.4108	168.9752	0.0000 
1891.592	6.5039	5.2350	169.2169	0.0000 
1891.614	6.5149	5.0537	169.4092	0.0000 
1891.636	6.5424	4.8999	169.5245	0.0000 
1891.656	6.5588	4.8175	169.5465	0.0000 
1891.735	6.5424	4.8065	169.5245	0.0000 
1891.746	6.5204	4.8120	169.5245	0.0000 
1891.747	6.4984	4.8230	169.5740	0.0000 
1891.747	6.4929	4.8175	169.6619	0.0000 
1891.753	6.5204	4.8230	169.7717	0.0000 
1891.767	6.5479	4.8065	169.8267	0.0000 
1891.789	6.4929	4.7845	169.7552	0.0000 
1891.813	6.4215	4.7955	169.6454	0.0000 
1891.835	6.3885	4.8010	169.5575	0.0000 
1891.858	6.4105	4.7571	169.4806	0.0000 
1891.865	6.4874	4.7021	169.3488	0.0000 
1891.884	6.5753	4.6582	169.1840	0.0000 
1891.970	6.6248	4.6088	169.0192	0.0000 
1891.976	6.6632	4.5428	168.8324	0.0000 
1891.976	6.7017	4.4550	168.5742	0.0000 
1891.976	6.7566	4.3616	168.1677	0.0000 
1891.983	6.8555	4.2792	167.7228	0.0000 
1892.005	6.9324	4.1858	167.2998	0.0000 
1892.027	7.0148	4.0704	166.9098	0.0000 
1892.050	7.1906	3.9935	166.5582	0.0000 
1892.070	7.2675	3.9166	166.0968	0.0000 
1892.160	7.1466	3.8232	165.4596	0.0000 
1892.160	6.8994	3.8232	164.7510	0.0000 
1892.160	6.7072	3.8727	164.1193	0.0000 
1892.161	6.6357	3.8617	163.7128	0.0000 
1892.167	6.5808	3.7848	163.4491	0.0000 
1892.183	6.5259	3.7189	163.2788	0.0000 
1892.204	6.4490	3.6694	163.1415	0.0000 
1892.224	6.3446	3.6969	163.0591	0.0000 
1892.246	6.2732	3.7573	163.0206	0.0000 
1892.269	6.2512	3.7793	162.9492	0.0000 
1892.294	6.1578	3.7738	162.8119	0.0000 
1898.112	5.9546	3.8068	162.6801	0.0000 
1898.198	5.7404	3.8287	162.6691	0.0000 
1898.199	5.5975	3.7903	162.7240	0.0000 
1898.199	5.4877	3.7299	162.7075	0.0000 
1898.199	5.4327	3.7354	162.6471	0.0000 
1898.199	5.3613	3.7848	162.5977	0.0000 
1898.199	5.2789	3.8617	162.6141	0.0000 
1898.199	5.2350	3.9606	162.6746	0.0000 
1898.199	5.2734	4.0594	162.7570	0.0000 
1898.199	5.3833	4.1309	162.8339	0.0000 
1898.199	5.5316	4.1638	162.8503	0.0000 
1898.200	5.6360	4.2133	162.8009	0.0000 
1898.200	5.7349	4.3396	162.7570	0.0000 
1898.200	5.8557	4.5264	162.8723	0.0000 
1898.200	6.0590	4.6802	163.1909	0.0000 
1898.200	6.3831	4.8065	163.6139	0.0000 
1898.200	6.6742	4.9933	164.0314	0.0000 
1898.200	6.8115	5.3394	164.4379	0.0000 
1898.200	6.7291	5.7294	164.7345	0.0000 
1898.200	6.5094	6.0260	165.0092	0.0000 
1898.200	6.3446	6.1523	165.3882	0.0000 
1898.200	6.2787	6.0480	165.7507	0.0000 
1898.200	6.2238	5.9052	165.9650	0.0000 
1898.200	6.1523	5.7788	166.0638	0.0000 
1898.200	6.1029	5.6470	166.0968	0.0000 
1898.200	6.0205	5.5206	166.0858	0.0000 
1898.200	5.9216	5.4108	166.0693	0.0000 
1898.200	5.8228	5.3174	166.0913	0.0000 
1898.200	5.7294	5.2185	166.1188	0.0000 
1898.200	5.6140	5.1471	166.1407	0.0000 
1898.200	5.5316	5.1086	166.1517	0.0000 
1898.201	5.4877	5.0482	166.1353	0.0000 
1898.201	5.4218	5.0153	166.0748	0.0000 
1898.201	5.3174	5.0262	165.9705	0.0000 
1898.201	5.1855	5.0427	165.8661	0.0000 
1898.201	5.0812	5.0262	165.8112	0.0000 
1898.202	5.0317	4.9548	165.7782	0.0000 
1898.202	5.0757	4.8615	165.7233	0.0000 
1898.202	5.1910	4.7681	165.6189	0.0000 
1898.202	5.3009	4.6637	165.3992	0.0000 
1898.202	5.3888	4.5758	165.1410	0.0000 
1898.202	5.5151	4.5264	164.9323	0.0000 
1898.202	5.6635	4.4440	164.7455	0.0000 
1898.202	5.8447	4.3066	164.5148	0.0000 
1898.202	5.9766	4.2078	164.2291	0.0000 
1898.202	6.0645	4.1364	163.9655	0.0000 
1898.202	6.2347	4.0485	163.7842	0.0000 
1898.202	6.3611	3.9661	163.5590	0.0000 
1898.202	6.3336	3.9386	163.1964	0.0000 
1898.202	6.0535	4.0320	162.7075	0.0000 
1898.202	5.7513	4.1858	162.2021	0.0000 
1898.202	5.5426	4.2847	161.7407	0.0000 
1898.202	5.4547	4.2737	161.3837	0.0000 
1898.202	5.4272	4.1913	161.1365	0.0000 
1898.202	5.4108	4.1473	160.9882	0.0000 
1898.203	5.3339	4.1803	160.9222	0.0000 
1898.203	5.2350	4.2902	160.8563	0.0000 
1898.203	5.1471	4.4330	160.7684	0.0000 
1898.203	5.0372	4.5319	160.6146	0.0000 
1898.203	4.8340	4.5923	160.4443	0.0000 
1898.203	4.6307	4.6252	160.3400	0.0000 
1898.203	4.4714	4.6088	160.3015	0.0000 
1898.203	4.3671	4.5593	160.2905	0.0000 
1898.203	4.2957	4.5044	160.2960	0.0000 
1898.203	4.2352	4.4879	160.3455	0.0000 
1898.203	4.2078	4.5319	160.4279	0.0000 
1898.203	4.2737	4.6143	160.5487	0.0000 
1898.203	4.3616	4.6857	160.6256	0.0000 
1898.203	4.4604	4.7571	160.6641	0.0000 
1898.203	4.5648	4.8340	160.7245	0.0000 
1898.203	4.6582	4.8779	160.8453	0.0000 
1898.203	4.7351	4.9219	161.0486	0.0000 
1898.203	4.8615	4.9713	161.3452	0.0000 
1898.203	5.0208	5.0262	161.7078	0.0000 
1898.204	5.2185	5.1251	162.0428	0.0000 
1898.204	5.3558	5.2405	162.2900	0.0000 
1898.204	5.4327	5.3448	162.5757	0.0000 
1898.204	5.4547	5.3723	162.9767	0.0000 
1898.204	5.4327	5.3558	163.3997	0.0000 
1898.204	5.4602	5.3448	163.7622	0.0000 
1898.204	5.4877	5.3229	164.0259	0.0000 
1898.204	5.4822	5.2844	164.2236	0.0000 
1898.204	5.4382	5.2405	164.3884	0.0000 
1898.204	5.3998	5.2240	164.5697	0.0000 
1898.204	5.4108	5.1855	164.7949	0.0000 
1898.204	5.4272	5.0867	165.0037	0.0000 
1898.204	5.4108	4.9823	165.0970	0.0000 
1898.204	5.3448	4.9164	165.1135	0.0000 
1898.205	5.2734	4.9109	165.0861	0.0000 
1898.205	5.2295	4.9329	165.0531	0.0000 
1898.205	5.1910	4.9713	165.0037	0.0000 
1898.213	5.1526	5.0482	164.9103	0.0000 
1898.213	5.1581	5.1526	164.7455	0.0000 
1898.214	5.2185	5.2020	164.4983	0.0000 
1898.214	5.2954	5.2350	164.1852	0.0000 
1898.214	5.3448	5.3284	163.8611	0.0000 
1898.214	5.3558	5.4272	163.5754	0.0000 
1898.214	5.3668	5.4547	163.3722	0.0000 
1898.214	5.4053	5.4327	163.2074	0.0000 
1898.214	5.4547	5.3888	162.9657	0.0000 
1898.214	5.4382	5.3778	162.6581	0.0000 
1898.214	5.4053	5.4272	162.3450	0.0000 
1898.214	5.3778	5.4767	162.0923	0.0000 
1898.214	5.3668	5.4932	161.8506	0.0000 
1898.215	5.3558	5.4932	161.5924	0.0000 
1898.215	5.3558	5.4822	161.3507	0.0000 
1898.215	5.3339	5.4547	161.1200	0.0000 
1898.215	5.3174	5.4437	160.8893	0.0000 
1898.215	5.2789	5.4218	160.6915	0.0000 
1898.215	5.2130	5.3778	160.5322	0.0000 
1898.215	5.1581	5.3174	160.4224	0.0000 
1898.215	5.1526	5.2460	160.3235	0.0000 
1898.215	5.1581	5.1910	160.2081	0.0000 
1898.215	5.1581	5.1691	160.0653	0.0000 
1898.215	5.1416	5.1471	159.9335	0.0000 
1898.215	5.1196	5.1141	159.8126	0.0000 
1898.215	5.0922	5.0757	159.7192	0.0000 
1898.215	5.0702	5.0482	159.6149	0.0000 
1898.216	5.0317	5.0262	159.5105	0.0000 
1898.216	4.9933	5.0098	159.4336	0.0000 
1898.216	4.9603	4.9823	159.3896	0.0000 
1898.216	4.9438	4.9329	159.3622	0.0000 
1898.216	4.9384	4.8834	159.3127	0.0000 
1898.216	4.9219	4.8505	159.2468	0.0000 
1898.216	4.8999	4.8340	159.1699	0.0000 
1898.216	4.8944	4.8120	159.1095	0.0000 
1898.216	4.8999	4.7571	159.0491	0.0000 
1898.216	4.9274	4.7131	158.9886	0.0000 
1898.216	4.9713	4.6637	158.9337	0.0000 
1898.216	5.0043	4.6252	158.8733	0.0000 
1898.216	5.0372	4.5923	158.8074	0.0000 
1898.216	5.0537	4.5593	158.7744	0.0000 
1898.216	5.0592	4.5154	158.7469	0.0000 
1898.216	5.0867	4.4824	158.7030	0.0000 
1898.216	5.1141	4.4495	158.6481	0.0000 
1898.216	5.1306	4.4220	158.6096	0.0000 
1898.216	5.1526	4.3890	158.5767	0.0000 
1898.216	5.1526	4.3451	158.5492	0.0000 
1898.216	5.1691	4.3121	158.5382	0.0000 
1898.216	5.2130	4.2792	158.5492	0.0000 
1898.216	5.2734	4.2407	158.5327	0.0000 
1898.217	5.2899	4.2133	158.4723	0.0000 
1898.217	5.2899	4.1913	158.4448	0.0000 
1898.217	5.2844	4.1693	158.4338	0.0000 
1898.217	5.3174	4.1528	158.3954	0.0000 
1898.217	5.3503	4.1254	158.3295	0.0000 
1898.217	5.3723	4.0979	158.2526	0.0000 
1898.217	5.3503	4.0869	158.1812	0.0000 
1898.217	5.3723	4.1034	158.1207	0.0000 
1898.217	5.4382	4.0869	158.0713	0.0000 
1898.217	5.5042	4.0540	158.0219	0.0000 
1898.217	5.5536	4.0320	157.9559	0.0000 
1898.217	5.5811	4.0155	157.9065	0.0000 
1898.217	5.6085	3.9935	157.8625	0.0000 
1898.217	5.6689	3.9716	157.8241	0.0000 
1898.217	5.6964	3.9496	157.7692	0.0000 
1898.217	5.7239	3.9386	157.7307	0.0000 
1898.217	5.7678	3.9441	157.7087	0.0000 
1898.217	5.8282	3.9386	157.6868	0.0000 
1898.217	5.8887	3.9276	157.6428	0.0000 
1898.217	5.9271	3.9331	157.5714	0.0000 
1898.217	5.9546	3.9551	157.5055	0.0000 
1898.217	5.9601	3.9661	157.4615	0.0000 
1898.217	5.9875	3.9771	157.4396	0.0000 
1898.217	6.0315	3.9880	157.3737	0.0000 
1898.218	6.0645	4.0045	157.3077	0.0000 
1898.218	6.0919	4.0265	157.2583	0.0000 
1898.218	6.0974	4.0375	157.1924	0.0000 
1898.218	6.0974	4.0649	157.1155	0.0000 
1898.218	6.1194	4.0979	157.0441	0.0000 
1898.218	6.1523	4.1089	156.9891	0.0000 
1898.218	6.1743	4.1199	156.9342	0.0000 
1898.218	6.1908	4.1364	156.8848	0.0000 
1898.218	6.1963	4.1528	156.8353	0.0000 
1898.218	6.2073	4.1528	156.7914	0.0000 
1898.219	6.2128	4.1309	156.7529	0.0000 
1898.219	6.2128	4.1254	156.7035	0.0000 
1898.219	6.2238	4.1364	156.6595	0.0000 
1898.219	6.2402	4.1418	156.6156	0.0000 
1898.219	6.2402	4.1254	156.5607	0.0000 
1898.219	6.2512	4.1254	156.5222	0.0000 
1898.219	6.2622	4.1144	156.4893	0.0000 
1898.225	6.2677	4.1089	156.4343	0.0000 
1898.225	6.2787	4.1199	156.3849	0.0000 
1898.225	6.3062	4.1089	156.3519	0.0000 
1898.225	6.3171	4.0869	156.3300	0.0000 
1898.225	6.3062	4.0924	156.2640	0.0000 
1898.225	6.3116	4.1144	156.1981	0.0000 
1898.225	6.3171	4.1254	156.1377	0.0000 
1898.226	6.3391	4.1418	156.0938	0.0000 
1898.226	6.3666	4.1748	156.0773	0.0000 
1898.226	6.4105	4.2023	156.0498	0.0000 
1898.226	6.4490	4.2242	156.0059	0.0000 
1898.226	6.5039	4.2517	155.9454	0.0000 
1898.227	6.5314	4.2792	155.8685	0.0000 
1898.227	6.5698	4.3066	155.8136	0.0000 
1898.227	6.6193	4.3286	155.7806	0.0000 
1898.228	6.6687	4.3561	155.7422	0.0000 
1898.228	6.7126	4.3890	155.7092	0.0000 
1898.228	6.7896	4.4165	155.6927	0.0000 
1898.228	6.8610	4.4000	155.6763	0.0000 
1898.228	6.9543	4.3945	155.6323	0.0000 
1898.228	7.0697	4.3781	155.6104	0.0000 
1898.228	7.2235	4.3286	155.5774	0.0000 
1898.228	7.3938	4.2792	155.5389	0.0000 
1898.228	7.5916	4.2133	155.5664	0.0000 
1898.229	7.8278	4.1144	155.6433	0.0000 
1898.229	8.0914	4.0100	155.7257	0.0000 
1898.229	8.3716	3.9111	155.7751	0.0000 
1898.229	8.6407	3.8123	155.8136	0.0000 
1898.229	8.8330	3.7354	155.8301	0.0000 
1898.229	8.9923	3.7079	155.8521	0.0000 
1898.229	9.1736	3.6859	155.8795	0.0000 
1898.229	9.3549	3.6639	155.8905	0.0000 
1898.229	9.4812	3.6749	155.8685	0.0000 
1898.229	9.5526	3.7134	155.8466	0.0000 
1898.229	9.6075	3.7408	155.8081	0.0000 
1898.229	9.6405	3.7903	155.7697	0.0000 
1898.229	9.6790	3.8507	155.7202	0.0000 
1898.229	9.7339	3.9056	155.6982	0.0000 
1898.229	9.7778	3.9331	155.6763	0.0000 
1898.229	9.8108	3.9551	155.6818	0.0000 
1898.229	9.8328	3.9716	155.6708	0.0000 
1898.230	9.8547	4.0100	155.6488	0.0000 
1898.230	9.8712	4.0375	155.6323	0.0000 
1898.230	9.8767	4.0320	155.6323	0.0000 
1898.230	9.8657	4.0210	155.6378	0.0000 
1898.230	9.8602	4.0155	155.6268	0.0000 
1898.230	9.8547	4.0045	155.6158	0.0000 
1898.230	9.8383	3.9606	155.6323	0.0000 
1898.230	9.8053	3.9166	155.6763	0.0000 
1898.230	9.7888	3.8947	155.7422	0.0000 
1898.230	9.7833	3.8617	155.8575	0.0000 
1898.230	9.7449	3.8068	155.9839	0.0000 
1898.230	9.6954	3.7738	156.1047	0.0000 
1898.230	9.6460	3.7573	156.2640	0.0000 
1898.230	9.6130	3.7244	156.4563	0.0000 
1898.230	9.5911	3.6639	156.6486	0.0000 
1898.230	9.5746	3.6035	156.8683	0.0000 
1898.230	9.5581	3.5596	157.1045	0.0000 
1898.230	9.5142	3.5156	157.3682	0.0000 
1898.230	9.4757	3.4662	157.6813	0.0000 
1898.230	9.4373	3.3948	158.0603	0.0000 
1898.231	9.4043	3.3398	158.4613	0.0000 
1898.231	9.3549	3.3069	158.8788	0.0000 
1898.231	9.2834	3.2849	159.3787	0.0000 
1898.231	9.2230	3.2849	159.9445	0.0000 
1898.231	9.1956	3.3124	160.5487	0.0000 
1898.231	9.2065	3.3124	161.1639	0.0000 
1898.231	9.2010	3.2849	161.7902	0.0000 
1898.231	9.2010	3.2794	162.4274	0.0000 
1898.231	9.2010	3.2904	163.0701	0.0000 
1898.231	9.2010	3.3179	163.6688	0.0000 
1898.231	9.2285	3.3453	164.2346	0.0000 
1898.231	9.2505	3.3563	164.7949	0.0000 
1898.231	9.2285	3.3728	165.3442	0.0000 
1898.231	9.2285	3.4277	165.8716	0.0000 
1898.231	9.2560	3.4662	166.3879	0.0000 
1898.231	9.3164	3.4827	166.8768	0.0000 
1898.232	9.3823	3.4937	167.3273	0.0000 
1898.232	9.4482	3.5376	167.7283	0.0000 
1898.232	9.5197	3.5596	168.1018	0.0000 
1898.232	9.5856	3.5706	168.4204	0.0000 
1898.232	9.6625	3.5925	168.7225	0.0000 
1898.232	9.7668	3.5925	169.0247	0.0000 
1898.232	9.8712	3.5760	169.2773	0.0000 
1898.232	9.9701	3.5706	169.4586	0.0000 
1898.233	10.0580	3.5760	169.5959	0.0000 
1898.233	10.1184	3.5760	169.7333	0.0000 
1898.233	10.1898	3.5596	169.8376	0.0000 
1898.233	10.2612	3.5376	169.8981	0.0000 
1898.233	10.3436	3.5101	169.9091	0.0000 
1898.233	10.4041	3.4717	169.8761	0.0000 
1898.245	10.4480	3.4552	169.7827	0.0000 
1898.245	10.5029	3.4387	169.6674	0.0000 
1898.245	10.5524	3.3948	169.5520	0.0000 
1898.246	10.5853	3.3289	169.4257	0.0000 
1898.246	10.6128	3.2849	169.2883	0.0000 
1898.246	10.6293	3.2574	169.1235	0.0000 
1898.246	10.6458	3.2190	168.9478	0.0000 
1898.246	10.6622	3.1696	168.7830	0.0000 
1898.246	10.6842	3.1256	168.5962	0.0000 
1898.246	10.7227	3.0872	168.4039	0.0000 
1898.246	10.7501	3.0377	168.2117	0.0000 
1898.246	10.7501	2.9938	168.0139	0.0000 
1898.247	10.7501	2.9663	167.7997	0.0000 
1898.247	10.7391	2.9443	167.5854	0.0000 
1898.247	10.7391	2.9169	167.4042	0.0000 
1898.247	10.7391	2.8949	167.2174	0.0000 
1898.247	10.7501	2.8839	167.0251	0.0000 
1898.247	10.7556	2.8729	166.8329	0.0000 
1898.247	10.7446	2.8839	166.6516	0.0000 
1898.247	10.7501	2.8894	166.4978	0.0000 
1898.247	10.7391	2.8949	166.3605	0.0000 
1898.247	10.7281	2.9169	166.2286	0.0000 
1898.247	10.7172	2.9553	166.1298	0.0000 
1898.247	10.7227	2.9663	166.0254	0.0000 
1898.247	10.7227	2.9718	165.9155	0.0000 
1898.247	10.7172	2.9883	165.8002	0.0000 
1898.254	10.7062	3.0322	165.7123	0.0000 
1898.268	10.7172	3.0762	165.6354	0.0000 
1898.293	10.7391	3.0872	165.5914	0.0000 
1898.314	10.7391	3.0981	165.5420	0.0000 
1898.336	10.7391	3.1146	165.4816	0.0000 
1898.351	10.7227	3.1421	165.4266	0.0000 
1898.369	10.7062	3.1860	165.3552	0.0000 
1898.386	10.7062	3.2355	165.3058	0.0000 
1898.407	10.7062	3.2629	165.2783	0.0000 
1898.490	10.7062	3.2794	165.2673	0.0000 
1898.496	10.6897	3.2904	165.2509	0.0000 
1898.496	10.6732	3.3069	165.2234	0.0000 
1898.496	10.6567	3.3289	165.1904	0.0000 
1898.506	10.6512	3.3618	165.1520	0.0000 
1898.526	10.6512	3.3893	165.1355	0.0000 
1898.545	10.6567	3.4058	165.1355	0.0000 
1898.565	10.6622	3.4167	165.1355	0.0000 
1898.585	10.6567	3.4277	165.1300	0.0000 
1898.658	10.6512	3.4497	165.1245	0.0000 
1898.671	10.6458	3.4662	165.1355	0.0000 
1898.671	10.6348	3.4827	165.1355	0.0000 
1898.677	10.6238	3.5156	165.1465	0.0000 
1898.692	10.6293	3.5321	165.1740	0.0000 
1898.713	10.6458	3.5321	165.2014	0.0000 
1898.724	10.6458	3.5266	165.2234	0.0000 
1898.744	10.6238	3.5266	165.2509	0.0000 
1898.764	10.6018	3.5211	165.2838	0.0000 
1898.784	10.5798	3.5046	165.3003	0.0000 
1898.804	10.5798	3.4827	165.3278	0.0000 
1898.881	10.5798	3.4717	165.3552	0.0000 
1898.887	10.5688	3.4662	165.3552	0.0000 
1898.887	10.5359	3.4717	165.3607	0.0000 
1898.887	10.5139	3.4882	165.3662	0.0000 
1898.913	10.5139	3.5046	165.3772	0.0000 
1898.923	10.5194	3.4991	165.3937	0.0000 
1898.943	10.4919	3.4991	165.4047	0.0000 
1898.963	10.4590	3.5046	165.4047	0.0000 
1898.982	10.4370	3.5101	165.4102	0.0000 
1899.043	10.4315	3.5046	165.4211	0.0000 
1899.052	10.4041	3.4937	165.4047	0.0000 
1899.052	10.3656	3.5046	165.3772	0.0000 
1899.062	10.3436	3.5211	165.3497	0.0000 
1899.082	10.3271	3.5156	165.3278	0.0000 
1899.102	10.3107	3.5211	165.2948	0.0000 
1899.122	10.2887	3.5266	165.2509	0.0000 
1899.143	10.2667	3.5266	165.2234	0.0000 
1899.166	10.2502	3.5266	165.1904	0.0000 
1899.183	10.2393	3.5321	165.1520	0.0000 
1899.266	10.2173	3.5321	165.1025	0.0000 
1899.272	10.1843	3.5266	165.0586	0.0000 
1899.272	10.1624	3.5156	165.0421	0.0000 
1899.272	10.1678	3.5046	165.0421	0.0000 
1899.281	10.1624	3.4937	165.0366	0.0000 
1899.302	10.1459	3.4882	165.0146	0.0000 
1899.321	10.1349	3.4772	165.0092	0.0000 
1899.341	10.1129	3.4662	165.0092	0.0000 
1899.363	10.1019	3.4607	165.0092	0.0000 
1899.387	10.1184	3.4662	165.0092	0.0000 
1899.406	10.1459	3.4552	165.0201	0.0000 
1899.488	10.1514	3.4332	165.0037	0.0000